-0,031	-0,026	-0,020	-0,016	-0,013	-0,016	-0,025	-0,044	-0,060	-0,070	-0,079	-0,084	-0,089	-0,082	-0,064	-0,041	-0,022	-0,012	0,001	0,014	0,027	0,027	0,017	0,006	-0,006	-0,011	-0,009	-0,013	-0,024	-0,036	-0,048	-0,040	-0,019	0,003	0,019	0,020	0,014	0,015	0,020	0,026	0,030	0,028	0,027	0,028	0,026	0,022	0,024	0,030	0,026	0,019	0,010	0,002	-0,000	0,008	0,012	0,013	0,015	0,019	0,012	-0,005	-0,026	-0,026	-0,010	0,013	0,027	0,035	0,031	0,018	0,005	-0,015	-0,021	-0,007	-0,003	-0,006	-0,007	-0,008	-0,012	-0,015	-0,004	0,016	0,043	0,059	0,063	0,062	0,061	0,055	0,044	0,026	-0,003	-0,032	-0,048	-0,053	-0,049	-0,035	-0,017	0,005	0,032	0,067	0,095	0,093	0,073	0,057	0,054	0,053	0,054	0,055	0,052	0,052	0,051	0,055	0,053	0,045	0,034	0,026	0,018	0,019	0,025	0,044	0,059	0,067	0,073	0,063	0,043	0,027	0,020	0,016	0,006	-0,005	-0,007	0,001	0,007	0,010	0,012	0,015	0,017	0,019	0,017	0,013	0,010	0,010	0,012	0,014	0,011	-0,001	-0,010	-0,024	-0,030	-0,026	-0,027	-0,030	-0,029	-0,023	-0,011	-0,002	-0,004	-0,007	-0,012	-0,020	-0,013	-0,003	0,003	0,007	0,005	-0,002	-0,000	0,005	0,009	0,016	0,026	0,033	0,030	0,020	0,006	0,003	0,005	0,019	0,038	0,049	0,048	0,048	0,046	0,035	0,024	0,011	-0,006	-0,019	-0,023	-0,013	0,008	0,029	0,038	0,037	0,040	0,052	0,060	0,067	0,075	0,074	0,071	0,076	0,090	0,102	0,097	0,088	0,074	0,055	0,036	0,015	0,004	0,004	0,004	0,005	0,002	0,000	0,011	0,027	0,039	0,046	0,051	0,059	0,067	0,076	0,085	0,096	0,113	0,118	0,104	0,077	0,048	0,032	0,029	0,031	0,031	0,030	0,033	0,035	0,032	0,025	0,022	0,027	0,031	0,031	0,030	0,023	0,015	0,013	0,016	0,027	0,041	0,053	0,055	0,053	0,053	0,059	0,066	0,074	0,079	0,075	0,061	0,045	0,037	0,042	0,060	0,073	0,071	0,062	0,051	0,039	0,031	0,025	0,013	0,006	0,007	0,023	0,045	0,064	0,072	0,073	0,077	0,083	0,086	0,084	0,081	0,080	0,082	0,084	0,081	0,070	0,057	0,044	0,034	0,035	0,034	0,036	0,034	0,034	0,032	0,030	0,036	0,047	0,054	0,060	0,070	0,077	0,076	0,067	0,056	0,054	0,065	0,074	0,066	0,053	0,041	0,037	0,038	0,043	0,052	0,064	0,075	0,075	0,069	0,065	0,059	0,059	0,057	0,043	0,032	0,029	0,026	0,019	0,028	0,043	0,052	0,058	0,059	0,059	0,059	0,054	0,048	0,040	0,033	0,028	0,034	0,034	0,025	0,020	0,027	0,041	0,055	0,065	0,064	0,057	0,052	0,050	0,050	0,044	0,039	0,033	0,025	0,023	0,025	0,023	0,015	0,014	0,025	0,039	0,047	0,053	0,061	0,068	0,073	0,073	0,071	0,069	0,062	0,059	0,061	0,060	0,063	0,068	0,070	0,071	0,067	0,051	0,041	0,037	0,037	0,034	0,032	0,030	0,034	0,042	0,046	0,052	0,060	0,068	0,065	0,057	0,063	0,067	0,071	0,074	0,074	0,072	0,067	0,060	0,051	0,044	0,039	0,027	0,011	-0,001	-0,008	-0,006	0,009	0,021	0,033	0,046	0,056	0,064	0,066	0,052	0,030	0,024	0,035	0,052	0,055	0,050	0,060	0,080	0,095	0,103	0,111	0,125	0,139	0,143	0,144	0,138	0,130	0,123	0,118	0,113	0,109	0,111	0,116	0,113	0,107	0,101	0,098	0,101	0,104	0,116	0,140	0,164	0,185	0,193	0,191	0,191	0,194	0,199	0,208	0,226	0,246	0,260	0,263	0,267	0,268	0,263	0,256	0,244	0,226	0,208	0,192	0,185	0,182	0,174	0,170	0,169	0,170	0,177	0,185	0,189	0,181	0,156	0,117	0,089	0,072	0,064	0,061	0,059	0,052	0,047	0,040	0,035	0,031	0,029	0,025	0,021	0,015	0,019	0,027	0,032	0,033	0,025	0,006	-0,008	-0,015	-0,015	-0,013	-0,015	-0,017	-0,020	-0,015	0,000	0,013	0,020	0,020	0,022	0,020	0,014	0,008	0,007	0,010	0,009	-0,006	-0,024	-0,018	0,004	0,024	0,033	0,034	0,021	0,004	-0,015	-0,037	-0,062	-0,077	-0,066	-0,040	-0,015	-0,005	-0,002	0,001	0,011	0,029	0,043	0,047	0,042	0,035	0,026	0,014	0,007	0,008	0,010	0,008	0,001	0,001	0,011	0,024	0,034	0,040	0,040	0,036	0,023	0,008	-0,011	-0,027	-0,039	-0,044	-0,040	-0,031	-0,019	-0,004	0,011	0,015	0,012	0,016	0,027	0,042	0,050	0,053	0,047	0,047	0,043	0,034	0,036	0,055	0,078	0,100	0,122	0,135	0,148	0,168	0,201	0,250	0,309	0,364	0,417	0,480	0,544	0,607	0,671	0,730	0,765	0,778	0,778	0,775	0,770	0,755	0,725	0,673	0,602	0,510	0,403	0,289	0,180	0,076	-0,024	-0,108	-0,160	-0,181	-0,183	-0,180	-0,177	-0,173	-0,167	-0,164	-0,159	-0,145	-0,119	-0,097	-0,074	-0,033	0,007	0,029	0,042	0,048	0,055	0,057	0,057	0,057	0,059	0,062	0,054	0,034	0,011	-0,009	-0,014	-0,016	-0,020	-0,024	-0,028	-0,024	-0,005	0,017	0,024	0,021	0,017	0,013	0,003	-0,006	-0,004	0,006	0,011	0,008	-0,002	-0,007	-0,006	-0,010	-0,014	-0,009	0,011	0,018	0,014	0,006	-0,007	-0,016	-0,015	-0,010	-0,003	0,007	0,011	0,014	0,013	0,010	0,010	0,011	0,007	0,000	-0,004	-0,005	-0,002	0,005	0,005	0,000	0,003	0,015	0,031	0,043	0,048	0,046	0,038	0,028	0,017	0,013	0,014	0,010	0,003	0,008	0,012	0,016	0,019	0,027	0,032	0,026	0,022	0,019	0,013	0,007	0,009	0,022	0,040	0,050	0,065	0,076	0,075	0,075	0,078	0,075	0,067	0,057	0,054	0,052	0,053	0,060	0,066	0,067	0,059	0,045	0,036	0,035	0,038	0,042	0,043	0,044	0,043	0,047	0,051	0,045	0,037	0,028	0,020	0,018	0,033	0,049	0,056	0,062	0,074	0,081	0,083	0,083	0,085	0,086	0,080	0,072	0,068	0,063	0,060	0,058	0,055	0,048	0,037	0,023	0,014	0,013	0,022	0,035	0,049	0,058	0,061	0,063	0,061	0,051	0,038	0,026	0,018	0,008	-0,004	-0,021	-0,027	-0,023	-0,015	-0,012	-0,009	-0,003	-0,000	0,003	0,009	0,015	0,024	0,043	0,058	0,065	0,061	0,050	0,035	0,013	-0,005	-0,012	0,001	0,014	0,030	0,047	0,053	0,054	0,053	0,046	0,034	0,026	0,019	0,025	0,045	0,059	0,059	0,047	0,038	0,037	0,039	0,037	0,036	0,033	0,028	0,025	0,026	0,026	0,031	0,043	0,053	0,058	0,050	0,045	0,050	0,065	0,078	0,083	0,083	0,087	0,093	0,090	0,078	0,058	0,041	0,034	0,042	0,046	0,042	0,044	0,050	0,056	0,058	0,057	0,054	0,047	0,049	0,059	0,070	0,079	0,079	0,070	0,059	0,048	0,042	0,039	0,037	0,041	0,046	0,046	0,039	0,035	0,040	0,046	0,050	0,053	0,056	0,062	0,065	0,066	0,058	0,047	0,038	0,034	0,033	0,035	0,041	0,057	0,080	0,091	0,083	0,072	0,068	0,065	0,067	0,067	0,065	0,064	0,066	0,062	0,055	0,053	0,058	0,064	0,067	0,069	0,073	0,074	0,078	0,089	0,095	0,087	0,071	0,060	0,057	0,074	0,102	0,118	0,116	0,106	0,095	0,083	0,068	0,058	0,052	0,052	0,047	0,042	0,047	0,059	0,069	0,077	0,085	0,090	0,095	0,097	0,095	0,095	0,095	0,096	0,093	0,088	0,077	0,065	0,045	0,029	0,021	0,022	0,029	0,037	0,041	0,048	0,062	0,083	0,097	0,096	0,085	0,074	0,066	0,064	0,065	0,067	0,067	0,065	0,063	0,060	0,053	0,048	0,052	0,054	0,051	0,048	0,040	0,041	0,051	0,056	0,047	0,033	0,030	0,035	0,038	0,038	0,042	0,048	0,058	0,063	0,063	0,056	0,055	0,061	0,068	0,067	0,070	0,080	0,082	0,083	0,088	0,089	0,082	0,071	0,064	0,055	0,043	0,040	0,048	0,058	0,070	0,080	0,082	0,080	0,079	0,077	0,072	0,064	0,056	0,049	0,044	0,038	0,033	0,030	0,035	0,049	0,061	0,063	0,060	0,056	0,053	0,054	0,050	0,041	0,028	0,018	0,020	0,041	0,077	0,099	0,100	0,091	0,086	0,081	0,077	0,068	0,056	0,052	0,050	0,043	0,037	0,046	0,061	0,080	0,100	0,111	0,114	0,124	0,139	0,161	0,177	0,182	0,186	0,178	0,158	0,140	0,133	0,128	0,124	0,131	0,143	0,150	0,156	0,161	0,167	0,180	0,195	0,205	0,206	0,198	0,187	0,186	0,194	0,206	0,223	0,242	0,253	0,259	0,259	0,258	0,253	0,246	0,235	0,224	0,220	0,216	0,220	0,223	0,216	0,205	0,191	0,170	0,156	0,148	0,133	0,112	0,096	0,088	0,081	0,072	0,060	0,046	0,033	0,023	0,016	0,011	0,003	0,002	0,011	0,023	0,024	0,026	0,036	0,041	0,027	0,009	0,004	0,013	0,030	0,039	0,037	0,027	0,015	0,009	0,013	0,016	0,022	0,027	0,024	0,011	-0,002	-0,013	-0,031	-0,050	-0,054	-0,035	-0,015	-0,011	-0,010	-0,011	-0,013	-0,017	-0,014	-0,011	-0,001	0,019	0,025	0,021	0,017	0,009	-0,003	-0,009	-0,005	-0,003	-0,005	-0,010	-0,016	-0,020	-0,014	-0,004	0,005	0,012	0,016	0,014	0,019	0,032	0,045	0,052	0,051	0,046	0,034	0,018	0,008	0,004	0,000	-0,005	-0,008	-0,010	-0,005	-0,003	-0,003	-0,004	-0,001	0,002	-0,005	-0,014	-0,021	-0,023	-0,022	-0,013	-0,002	0,009	0,016	0,012	0,001	0,002	0,019	0,052	0,090	0,123	0,148	0,176	0,202	0,235	0,283	0,339	0,397	0,452	0,505	0,560	0,612	0,655	0,684	0,700	0,711	0,713	0,719	0,726	0,734	0,739	0,723	0,668	0,566	0,443	0,334	0,244	0,164	0,092	0,020	-0,044	-0,093	-0,130	-0,163	-0,193	-0,213	-0,223	-0,226	-0,214	-0,186	-0,156	-0,124	-0,086	-0,045	-0,013	0,009	0,021	0,023	0,024	0,014	0,007	0,003	0,000	-0,004	-0,012	-0,025	-0,037	-0,029	-0,016	-0,020	-0,037	-0,047	-0,039	-0,027	-0,020	-0,014	-0,007	-0,003	-0,001	-0,008	-0,012	-0,004	-0,000	-0,001	-0,003	-0,010	-0,019	-0,028	-0,029	-0,025	-0,023	-0,019	-0,009	-0,000	-0,004	-0,019	-0,034	-0,038	-0,030	-0,013	0,005	0,024	0,034	0,033	0,022	0,009	-0,005	-0,016	-0,021	-0,021	-0,022	-0,019	-0,010	0,001	0,012	0,015	0,017	0,023	0,017	0,007	0,002	0,006	0,015	0,018	0,011	0,003	-0,005	-0,010	-0,014	-0,008	0,000	0,008	0,015	0,024	0,031	0,027	0,020	0,008	-0,001	-0,007	-0,017	-0,027	-0,022	-0,011	-0,002	0,014	0,026	0,039	0,041	0,033	0,028	0,030	0,031	0,035	0,042	0,047	0,048	0,056	0,078	0,096	0,096	0,083	0,065	0,054	0,051	0,046	0,040	0,037	0,039	0,036	0,030	0,039	0,043	0,041	0,056	0,069	0,058	0,045	0,038	0,035	0,030	0,028	0,026	0,029	0,036	0,036	0,034	0,034	0,036	0,036	0,035	0,030	0,025	0,015	0,006	0,003	0,008	0,015	0,021	0,025	0,030	0,035	0,033	0,029	0,025	0,016	0,008	0,009	-0,001	-0,013	-0,021	-0,026	-0,023	-0,007	0,010	0,022	0,020	0,011	0,009	0,010	0,014	0,017	0,017	0,012	0,001	-0,017	-0,039	-0,052	-0,058	-0,062	-0,063	-0,062	-0,047	-0,032	-0,019	0,005	0,030	0,036	0,034	0,034	0,033	0,029	0,032	0,037	0,036	0,034	0,033	0,032	0,030	0,024	0,019	0,015	0,013	0,014	0,015	0,008	0,006	0,005	0,009	0,021	0,024	0,034	0,059	0,080	0,082	0,068	0,053	0,040	0,025	0,010	0,011	0,024	0,035	0,037	0,041	0,043	0,043	0,042	0,044	0,047	0,042	0,035	0,033	0,040	0,050	0,051	0,046	0,037	0,026	0,020	0,020	0,022	0,033	0,049	0,054	0,041	0,023	0,012	0,011	0,013	0,012	0,019	0,029	0,029	0,031	0,036	0,042	0,044	0,037	0,033	0,030	0,030	0,031	0,026	0,024	0,025	0,024	0,023	0,027	0,030	0,028	0,027	0,022	0,019	0,017	0,012	0,012	0,017	0,019	0,020	0,020	0,014	0,013	0,030	0,051	0,062	0,064	0,052	0,030	0,015	0,018	0,027	0,034	0,037	0,042	0,050	0,061	0,073	0,081	0,084	0,084	0,086	0,092	0,094	0,086	0,073	0,060	0,047	0,038	0,039	0,048	0,064	0,073	0,064	0,050	0,036	0,024	0,023	0,028	0,027	0,021	0,022	0,027	0,022	0,026	0,037	0,052	0,059	0,060	0,062	0,067	0,070	0,069	0,064	0,058	0,051	0,035	0,019	0,011	0,006	-0,003	-0,007	0,001	0,018	0,031	0,033	0,033	0,041	0,047	0,049	0,048	0,047	0,047	0,044	0,044	0,042	0,040	0,039	0,033	0,025	0,013	0,006	0,003	0,001	0,008	0,023	0,034	0,045	0,052	0,049	0,039	0,020	0,003	-0,001	0,003	0,010	0,017	0,026	0,032	0,045	0,050	0,042	0,031	0,024	0,024	0,035	0,051	0,056	0,055	0,053	0,058	0,069	0,078	0,079	0,079	0,070	0,050	0,031	0,027	0,031	0,036	0,034	0,032	0,037	0,054	0,062	0,062	0,063	0,059	0,049	0,040	0,044	0,052	0,053	0,045	0,029	0,010	-0,012	-0,021	-0,010	0,003	0,024	0,044	0,055	0,056	0,049	0,038	0,021	0,005	-0,010	-0,014	-0,003	0,014	0,027	0,035	0,045	0,048	0,048	0,050	0,052	0,050	0,048	0,051	0,058	0,064	0,065	0,074	0,090	0,111	0,124	0,131	0,137	0,129	0,115	0,099	0,081	0,078	0,087	0,105	0,119	0,123	0,124	0,128	0,131	0,133	0,129	0,128	0,135	0,143	0,140	0,143	0,155	0,167	0,177	0,186	0,193	0,203	0,211	0,210	0,200	0,189	0,182	0,177	0,170	0,164	0,162	0,157	0,155	0,156	0,148	0,142	0,140	0,138	0,127	0,111	0,094	0,079	0,073	0,075	0,075	0,071	0,065	0,048	0,019	-0,000	-0,000	0,006	0,013	0,012	0,007	0,008	0,008	0,001	-0,002	-0,010	-0,025	-0,037	-0,045	-0,048	-0,036	-0,021	-0,009	-0,009	-0,020	-0,029	-0,031	-0,029	-0,024	-0,013	0,002	0,014	0,011	-0,007	-0,027	-0,045	-0,055	-0,059	-0,060	-0,060	-0,051	-0,044	-0,037	-0,028	-0,023	-0,027	-0,033	-0,040	-0,048	-0,049	-0,047	-0,044	-0,041	-0,039	-0,035	-0,039	-0,041	-0,040	-0,044	-0,047	-0,042	-0,030	-0,022	-0,010	-0,008	-0,008	-0,006	-0,007	-0,011	-0,006	-0,007	-0,014	-0,022	-0,028	-0,036	-0,040	-0,044	-0,046	-0,046	-0,044	-0,037	-0,033	-0,038	-0,041	-0,042	-0,037	-0,029	-0,024	-0,021	-0,009	0,005	0,016	0,029	0,045	0,055	0,063	0,069	0,071	0,072	0,078	0,095	0,124	0,157	0,197	0,247	0,302	0,364	0,430	0,493	0,553	0,606	0,649	0,677	0,687	0,698	0,708	0,716	0,724	0,728	0,729	0,716	0,670	0,592	0,493	0,376	0,253	0,148	0,063	-0,011	-0,077	-0,138	-0,187	-0,222	-0,249	-0,260	-0,253	-0,240	-0,222	-0,197	-0,159	-0,119	-0,086	-0,053	-0,020	0,000	0,008	0,010	0,014	0,014	0,009	-0,001	-0,009	-0,016	-0,025	-0,040	-0,052	-0,053	-0,053	-0,053	-0,059	-0,074	-0,094	-0,108	-0,103	-0,086	-0,071	-0,057	-0,042	-0,027	-0,009	0,003	0,005	-0,007	-0,029	-0,047	-0,053	-0,053	-0,045	-0,039	-0,044	-0,056	-0,063	-0,058	-0,048	-0,044	-0,042	-0,038	-0,031	-0,023	-0,012	-0,006	-0,010	-0,017	-0,028	-0,043	-0,051	-0,059	-0,063	-0,058	-0,038	-0,020	-0,013	-0,020	-0,030	-0,033	-0,029	-0,020	-0,011	-0,001	0,007	0,003	-0,009	-0,021	-0,026	-0,028	-0,022	-0,012	-0,008	-0,015	-0,025	-0,033	-0,035	-0,034	-0,043	-0,055	-0,051	-0,025	0,007	0,026	0,032	0,039	0,040	0,038	0,033	0,017	-0,001	-0,010	-0,015	-0,017	-0,025	-0,031	-0,028	-0,015	-0,005	-0,004	-0,006	0,002	0,025	0,041	0,041	0,029	0,014	0,008	0,009	0,011	0,012	0,012	0,018	0,027	0,028	0,016	0,003	-0,004	-0,007	-0,005	0,010	0,023	0,029	0,027	0,025	0,022	0,021	0,015	0,010	0,005	0,003	-0,001	-0,008	-0,012	-0,010	-0,006	-0,003	-0,000	-0,001	0,008	0,018	0,024	0,022	0,008	-0,005	-0,014	-0,016	-0,018	-0,022	-0,028	-0,030	-0,035	-0,036	-0,032	-0,023	-0,010	-0,009	-0,011	-0,016	-0,025	-0,032	-0,033	-0,028	-0,025	-0,024	-0,018	-0,014	-0,012	-0,013	-0,026	-0,042	-0,049	-0,050	-0,055	-0,059	-0,060	-0,051	-0,039	-0,037	-0,039	-0,032	-0,014	-0,011	-0,013	-0,016	-0,028	-0,036	-0,038	-0,038	-0,033	-0,026	-0,014	-0,006	-0,007	-0,013	-0,014	-0,015	-0,016	-0,013	-0,006	-0,003	0,003	0,018	0,034	0,043	0,044	0,040	0,028	0,016	0,004	-0,005	-0,010	-0,007	0,010	0,027	0,039	0,043	0,045	0,040	0,038	0,046	0,053	0,047	0,040	0,042	0,043	0,047	0,048	0,036	0,013	-0,010	-0,027	-0,031	-0,022	-0,014	-0,010	-0,008	-0,010	-0,007	0,001	0,014	0,021	0,019	0,015	0,013	0,020	0,030	0,034	0,031	0,024	0,011	0,000	-0,002	-0,003	-0,010	-0,015	-0,004	0,011	0,016	0,023	0,025	0,023	0,010	-0,017	-0,046	-0,061	-0,058	-0,053	-0,047	-0,033	-0,018	0,006	0,026	0,034	0,028	0,019	0,008	0,009	0,018	0,027	0,039	0,054	0,061	0,069	0,076	0,074	0,070	0,073	0,067	0,054	0,040	0,033	0,036	0,035	0,020	0,013	0,014	0,020	0,030	0,037	0,040	0,040	0,044	0,053	0,046	0,029	0,023	0,023	0,028	0,028	0,023	0,013	-0,001	-0,008	-0,011	-0,017	-0,019	-0,011	0,006	0,021	0,025	0,022	0,030	0,039	0,042	0,044	0,051	0,052	0,036	0,017	0,002	-0,009	-0,020	-0,023	-0,028	-0,028	-0,016	0,001	0,015	0,017	0,009	0,004	-0,000	-0,002	0,001	0,003	0,003	0,010	0,025	0,035	0,031	0,013	-0,014	-0,032	-0,030	-0,014	0,011	0,036	0,047	0,044	0,035	0,039	0,050	0,061	0,075	0,084	0,092	0,093	0,088	0,073	0,047	0,029	0,019	0,008	-0,005	-0,012	-0,002	0,023	0,045	0,048	0,042	0,029	0,016	0,011	0,015	0,016	0,022	0,026	0,029	0,034	0,039	0,044	0,040	0,031	0,024	0,018	0,012	0,003	-0,004	-0,003	0,003	0,010	0,015	0,015	0,014	0,012	0,009	0,013	0,020	0,029	0,031	0,021	0,002	-0,016	-0,024	-0,021	-0,011	0,013	0,038	0,049	0,043	0,027	0,013	-0,001	-0,011	-0,015	-0,021	-0,027	-0,032	-0,035	-0,035	-0,026	-0,007	0,010	0,023	0,035	0,041	0,042	0,046	0,047	0,042	0,032	0,025	0,028	0,038	0,044	0,052	0,070	0,085	0,086	0,069	0,052	0,042	0,041	0,039	0,033	0,023	0,011	0,001	-0,003	-0,001	-0,001	0,001	0,010	0,019	0,027	0,035	0,037	0,036	0,039	0,035	0,027	0,018	0,012	0,013	0,022	0,038	0,061	0,084	0,096	0,091	0,076	0,063	0,053	0,049	0,057	0,072	0,089	0,101	0,098	0,086	0,070	0,066	0,077	0,084	0,092	0,096	0,099	0,099	0,098	0,110	0,139	0,160	0,172	0,183	0,188	0,194	0,196	0,191	0,180	0,167	0,158	0,161	0,175	0,187	0,194	0,200	0,197	0,190	0,178	0,165	0,151	0,142	0,145	0,158	0,163	0,154	0,152	0,154	0,149	0,138	0,121	0,101	0,085	0,078	0,073	0,069	0,064	0,052	0,038	0,028	0,010	-0,010	-0,018	-0,018	-0,009	0,004	0,012	0,027	0,037	0,032	0,012	-0,005	-0,011	-0,015	-0,019	-0,030	-0,041	-0,050	-0,053	-0,046	-0,040	-0,041	-0,040	-0,034	-0,024	-0,010	0,002	0,008	0,011	0,009	-0,005	-0,013	-0,020	-0,030	-0,035	-0,036	-0,034	-0,030	-0,026	-0,023	-0,014	0,003	0,014	0,010	-0,004	-0,015	-0,015	-0,007	-0,001	-0,000	-0,001	-0,006	-0,009	-0,016	-0,037	-0,055	-0,061	-0,053	-0,039	-0,024	-0,010	-0,012	-0,013	-0,005	0,003	0,008	0,013	0,016	0,008	0,002	0,000	-0,006	-0,006	0,005	0,014	0,009	-0,000	-0,000	0,008	0,010	0,003	-0,001	0,009	0,025	0,033	0,039	0,042	0,051	0,065	0,071	0,068	0,077	0,098	0,117	0,142	0,168	0,203	0,247	0,303	0,367	0,431	0,493	0,544	0,589	0,626	0,654	0,676	0,699	0,716	0,724	0,732	0,731	0,730	0,714	0,656	0,580	0,501	0,411	0,322	0,238	0,165	0,095	0,026	-0,034	-0,090	-0,137	-0,166	-0,182	-0,191	-0,189	-0,180	-0,161	-0,129	-0,099	-0,066	-0,036	-0,009	0,012	0,025	0,031	0,033	0,037	0,041	0,051	0,067	0,080	0,081	0,074	0,062	0,043	0,016	-0,010	-0,035	-0,046	-0,043	-0,034	-0,023	-0,017	-0,022	-0,022	-0,017	-0,010	0,003	0,015	0,021	0,031	0,036	0,029	0,007	-0,010	-0,014	-0,002	0,017	0,030	0,027	0,012	0,005	0,006	0,007	0,008	0,011	0,013	0,009	0,007	0,002	0,006	0,007	0,005	-0,004	-0,015	-0,007	0,024	0,050	0,058	0,057	0,053	0,047	0,046	0,053	0,067	0,079	0,086	0,083	0,075	0,071	0,068	0,066	0,071	0,076	0,073	0,059	0,048	0,039	0,034	0,030	0,028	0,030	0,033	0,035	0,039	0,042	0,045	0,052	0,065	0,079	0,091	0,097	0,105	0,109	0,098	0,083	0,072	0,065	0,061	0,063	0,071	0,078	0,087	0,101	0,108	0,098	0,087	0,083	0,080	0,074	0,069	0,070	0,071	0,063	0,047	0,031	0,026	0,043	0,058	0,068	0,087	0,111	0,123	0,118	0,111	0,112	0,115	0,115	0,109	0,099	0,094	0,092	0,099	0,100	0,094	0,080	0,062	0,040	0,027	0,026	0,030	0,032	0,026	0,018	0,029	0,053	0,081	0,101	0,114	0,125	0,133	0,136	0,128	0,116	0,104	0,093	0,082	0,067	0,058	0,056	0,049	0,040	0,036	0,034	0,035	0,038	0,040	0,035	0,031	0,033	0,048	0,070	0,084	0,089	0,084	0,070	0,053	0,034	0,021	0,028	0,045	0,052	0,056	0,064	0,071	0,079	0,086	0,092	0,090	0,087	0,087	0,088	0,087	0,089	0,089	0,086	0,079	0,073	0,066	0,061	0,053	0,056	0,066	0,072	0,073	0,081	0,091	0,101	0,109	0,118	0,125	0,122	0,114	0,107	0,107	0,114	0,117	0,110	0,102	0,099	0,098	0,096	0,088	0,083	0,084	0,098	0,116	0,134	0,148	0,160	0,173	0,181	0,176	0,175	0,160	0,139	0,126	0,112	0,100	0,094	0,094	0,099	0,099	0,105	0,113	0,115	0,120	0,136	0,152	0,155	0,147	0,143	0,133	0,118	0,106	0,101	0,106	0,110	0,108	0,097	0,083	0,073	0,079	0,085	0,090	0,096	0,106	0,122	0,135	0,139	0,131	0,126	0,127	0,127	0,125	0,119	0,118	0,127	0,138	0,144	0,143	0,136	0,124	0,124	0,126	0,127	0,126	0,127	0,131	0,138	0,145	0,146	0,141	0,134	0,125	0,120	0,116	0,115	0,125	0,137	0,139	0,133	0,122	0,112	0,111	0,115	0,117	0,114	0,113	0,116	0,121	0,129	0,131	0,123	0,110	0,101	0,108	0,124	0,138	0,153	0,165	0,167	0,164	0,162	0,160	0,158	0,155	0,149	0,141	0,133	0,129	0,123	0,119	0,128	0,136	0,141	0,143	0,140	0,131	0,122	0,119	0,119	0,124	0,133	0,141	0,139	0,139	0,141	0,137	0,127	0,115	0,105	0,100	0,104	0,117	0,134	0,147	0,145	0,133	0,124	0,120	0,120	0,128	0,140	0,146	0,152	0,158	0,166	0,172	0,172	0,167	0,161	0,155	0,144	0,131	0,124	0,116	0,104	0,098	0,103	0,113	0,120	0,122	0,121	0,124	0,127	0,120	0,114	0,114	0,119	0,115	0,108	0,097	0,086	0,077	0,076	0,080	0,076	0,082	0,096	0,114	0,122	0,120	0,126	0,133	0,139	0,131	0,129	0,142	0,153	0,156	0,150	0,146	0,135	0,119	0,104	0,094	0,091	0,093	0,095	0,097	0,103	0,115	0,122	0,119	0,115	0,128	0,148	0,158	0,154	0,142	0,126	0,115	0,110	0,104	0,096	0,096	0,100	0,103	0,110	0,121	0,129	0,127	0,122	0,124	0,128	0,132	0,141	0,151	0,152	0,135	0,124	0,127	0,125	0,115	0,107	0,105	0,101	0,095	0,094	0,099	0,105	0,107	0,111	0,116	0,122	0,126	0,133	0,140	0,140	0,141	0,152	0,161	0,163	0,172	0,173	0,160	0,137	0,126	0,132	0,151	0,171	0,179	0,178	0,174	0,178	0,191	0,198	0,200	0,203	0,212	0,222	0,233	0,237	0,236	0,235	0,242	0,243	0,241	0,244	0,244	0,245	0,245	0,247	0,255	0,263	0,266	0,266	0,263	0,261	0,254	0,240	0,222	0,209	0,204	0,207	0,215	0,227	0,238	0,244	0,243	0,237	0,227	0,220	0,209	0,190	0,168	0,155	0,148	0,141	0,138	0,128	0,116	0,101	0,086	0,077	0,080	0,082	0,079	0,069	0,065	0,070	0,069	0,063	0,056	0,053	0,062	0,074	0,076	0,069	0,062	0,060	0,058	0,046	0,027	0,007	-0,009	-0,020	-0,026	-0,027	-0,027	-0,021	-0,010	0,010	0,029	0,043	0,053	0,061	0,072	0,082	0,089	0,081	0,063	0,040	0,021	0,008	0,001	0,000	0,005	0,005	0,002	-0,003	-0,007	-0,005	-0,007	-0,009	-0,011	-0,004	0,013	0,042	0,062	0,068	0,057	0,035	0,018	0,018	0,024	0,026	0,024	0,021	0,019	0,017	0,014	0,013	0,016	0,018	0,015	0,016	0,012	-0,001	-0,014	-0,024	-0,030	-0,025	-0,008	0,003	0,001	-0,007	-0,008	-0,008	-0,005	-0,005	-0,006	0,002	0,016	0,035	0,052	0,062	0,081	0,113	0,145	0,173	0,207	0,242	0,273	0,306	0,346	0,394	0,446	0,500	0,552	0,602	0,648	0,675	0,687	0,696	0,704	0,715	0,729	0,740	0,729	0,687	0,615	0,525	0,423	0,314	0,201	0,094	0,006	-0,065	-0,121	-0,165	-0,196	-0,214	-0,228	-0,226	-0,208	-0,182	-0,158	-0,120	-0,082	-0,055	-0,033	-0,016	-0,006	-0,006	-0,011	-0,021	-0,033	-0,036	-0,028	-0,012	-0,001	0,007	0,009	-0,009	-0,029	-0,042	-0,053	-0,061	-0,061	-0,061	-0,060	-0,060	-0,061	-0,058	-0,060	-0,069	-0,089	-0,106	-0,106	-0,095	-0,086	-0,073	-0,060	-0,049	-0,036	-0,024	-0,019	-0,008	0,002	-0,000	-0,014	-0,028	-0,037	-0,037	-0,035	-0,040	-0,048	-0,056	-0,057	-0,058	-0,065	-0,074	-0,073	-0,068	-0,062	-0,048	-0,037	-0,033	-0,032	-0,030	-0,029	-0,033	-0,045	-0,063	-0,072	-0,072	-0,066	-0,064	-0,070	-0,076	-0,071	-0,068	-0,075	-0,073	-0,060	-0,042	-0,027	-0,021	-0,027	-0,037	-0,045	-0,055	-0,068	-0,067	-0,056	-0,042	-0,034	-0,033	-0,034	-0,030	-0,029	-0,032	-0,037	-0,042	-0,041	-0,034	-0,033	-0,039	-0,036	-0,032	-0,029	-0,027	-0,028	-0,035	-0,037	-0,037	-0,039	-0,048	-0,061	-0,072	-0,079	-0,086	-0,084	-0,078	-0,076	-0,076	-0,074	-0,066	-0,055	-0,050	-0,049	-0,046	-0,036	-0,023	-0,015	-0,023	-0,030	-0,028	-0,029	-0,031	-0,029	-0,034	-0,046	-0,056	-0,060	-0,064	-0,065	-0,063	-0,067	-0,082	-0,095	-0,096	-0,089	-0,089	-0,092	-0,092	-0,087	-0,079	-0,072	-0,062	-0,058	-0,063	-0,066	-0,071	-0,076	-0,082	-0,093	-0,096	-0,094	-0,093	-0,095	-0,098	-0,093	-0,089	-0,095	-0,111	-0,112	-0,103	-0,105	-0,113	-0,118	-0,120	-0,123	-0,122	-0,118	-0,118	-0,117	-0,114	-0,117	-0,121	-0,119	-0,123	-0,131	-0,142	-0,154	-0,164	-0,160	-0,142	-0,127	-0,122	-0,119	-0,113	-0,107	-0,110	-0,122	-0,129	-0,138	-0,144	-0,141	-0,135	-0,124	-0,116	-0,111	-0,105	-0,100	-0,103	-0,108	-0,108	-0,104	-0,097	-0,081	-0,065	-0,057	-0,057	-0,059	-0,064	-0,062	-0,063	-0,070	-0,086	-0,104	-0,119	-0,132	-0,145	-0,156	-0,161	-0,153	-0,143	-0,137	-0,132	-0,126	-0,119	-0,111	-0,106	-0,102	-0,099	-0,097	-0,096	-0,098	-0,110	-0,120	-0,126	-0,124	-0,114	-0,110	-0,120	-0,125	-0,126	-0,127	-0,123	-0,118	-0,118	-0,125	-0,128	-0,130	-0,131	-0,131	-0,127	-0,129	-0,139	-0,147	-0,143	-0,130	-0,126	-0,130	-0,146	-0,156	-0,165	-0,164	-0,159	-0,159	-0,156	-0,147	-0,131	-0,122	-0,114	-0,112	-0,115	-0,128	-0,145	-0,156	-0,164	-0,170	-0,178	-0,184	-0,176	-0,159	-0,144	-0,141	-0,142	-0,149	-0,162	-0,173	-0,171	-0,151	-0,129	-0,122	-0,120	-0,109	-0,091	-0,083	-0,092	-0,102	-0,109	-0,112	-0,119	-0,129	-0,139	-0,143	-0,147	-0,155	-0,163	-0,165	-0,169	-0,175	-0,179	-0,177	-0,171	-0,166	-0,153	-0,146	-0,150	-0,159	-0,166	-0,162	-0,161	-0,154	-0,147	-0,150	-0,151	-0,150	-0,156	-0,162	-0,163	-0,160	-0,161	-0,164	-0,156	-0,143	-0,123	-0,111	-0,118	-0,130	-0,148	-0,170	-0,186	-0,190	-0,185	-0,180	-0,176	-0,179	-0,190	-0,198	-0,193	-0,174	-0,155	-0,147	-0,145	-0,139	-0,138	-0,144	-0,160	-0,186	-0,206	-0,218	-0,230	-0,237	-0,236	-0,216	-0,179	-0,146	-0,129	-0,132	-0,147	-0,165	-0,173	-0,168	-0,160	-0,158	-0,159	-0,160	-0,158	-0,163	-0,175	-0,185	-0,191	-0,192	-0,185	-0,177	-0,172	-0,165	-0,165	-0,166	-0,170	-0,184	-0,195	-0,205	-0,211	-0,209	-0,202	-0,200	-0,201	-0,205	-0,201	-0,191	-0,185	-0,179	-0,177	-0,177	-0,178	-0,173	-0,169	-0,172	-0,179	-0,185	-0,193	-0,203	-0,201	-0,193	-0,182	-0,178	-0,185	-0,195	-0,203	-0,203	-0,197	-0,191	-0,189	-0,190	-0,191	-0,183	-0,174	-0,163	-0,158	-0,159	-0,164	-0,172	-0,184	-0,197	-0,213	-0,230	-0,236	-0,232	-0,227	-0,224	-0,224	-0,218	-0,216	-0,219	-0,222	-0,233	-0,239	-0,240	-0,234	-0,215	-0,191	-0,165	-0,141	-0,124	-0,123	-0,130	-0,144	-0,159	-0,167	-0,176	-0,184	-0,186	-0,184	-0,181	-0,178	-0,174	-0,171	-0,168	-0,161	-0,147	-0,129	-0,118	-0,113	-0,106	-0,099	-0,090	-0,088	-0,092	-0,091	-0,091	-0,088	-0,086	-0,091	-0,097	-0,098	-0,089	-0,077	-0,071	-0,063	-0,048	-0,029	-0,016	-0,007	-0,002	-0,006	-0,014	-0,017	-0,020	-0,035	-0,057	-0,073	-0,076	-0,084	-0,095	-0,102	-0,103	-0,101	-0,106	-0,112	-0,112	-0,112	-0,124	-0,139	-0,152	-0,169	-0,189	-0,206	-0,214	-0,222	-0,237	-0,255	-0,272	-0,287	-0,290	-0,289	-0,286	-0,278	-0,274	-0,276	-0,283	-0,289	-0,282	-0,267	-0,251	-0,242	-0,243	-0,252	-0,262	-0,268	-0,268	-0,264	-0,263	-0,266	-0,262	-0,255	-0,257	-0,258	-0,257	-0,252	-0,252	-0,255	-0,260	-0,262	-0,259	-0,262	-0,267	-0,267	-0,252	-0,232	-0,226	-0,231	-0,246	-0,258	-0,270	-0,279	-0,284	-0,279	-0,278	-0,277	-0,264	-0,246	-0,227	-0,217	-0,221	-0,237	-0,260	-0,284	-0,306	-0,319	-0,320	-0,322	-0,321	-0,316	-0,300	-0,283	-0,271	-0,265	-0,259	-0,252	-0,246	-0,239	-0,239	-0,240	-0,239	-0,238	-0,235	-0,236	-0,242	-0,259	-0,270	-0,269	-0,271	-0,279	-0,288	-0,283	-0,269	-0,254	-0,236	-0,220	-0,209	-0,205	-0,207	-0,211	-0,205	-0,192	-0,170	-0,141	-0,102	-0,056	-0,011	0,027	0,065	0,108	0,151	0,194	0,238	0,287	0,349	0,411	0,459	0,501	0,532	0,548	0,546	0,537	0,511	0,457	0,388	0,304	0,213	0,113	0,016	-0,075	-0,155	-0,226	-0,296	-0,361	-0,397	-0,412	-0,423	-0,435	-0,447	-0,452	-0,447	-0,427	-0,395	-0,364	-0,330	-0,297	-0,268	-0,253	-0,250	-0,254	-0,257	-0,251	-0,241	-0,221	-0,209	-0,216	-0,222	-0,226	-0,231	-0,234	-0,234	-0,236	-0,240	-0,243	-0,250	-0,259	-0,268	-0,274	-0,277	-0,279	-0,287	-0,294	-0,296	-0,286	-0,272	-0,262	-0,257	-0,260	-0,265	-0,259	-0,254	-0,256	-0,255	-0,247	-0,244	-0,246	-0,245	-0,248	-0,247	-0,256	-0,268	-0,273	-0,272	-0,271	-0,268	-0,258	-0,247	-0,237	-0,230	-0,231	-0,237	-0,246	-0,254	-0,252	-0,244	-0,235	-0,231	-0,233	-0,235	-0,234	-0,229	-0,229	-0,233	-0,240	-0,242	-0,236	-0,224	-0,222	-0,229	-0,231	-0,228	-0,223	-0,216	-0,211	-0,215	-0,234	-0,255	-0,269	-0,269	-0,256	-0,247	-0,249	-0,257	-0,267	-0,275	-0,279	-0,261	-0,223	-0,183	-0,160	-0,157	-0,166	-0,168	-0,168	-0,173	-0,181	-0,188	-0,194	-0,198	-0,202	-0,201	-0,195	-0,187	-0,187	-0,191	-0,196	-0,203	-0,206	-0,188	-0,166	-0,154	-0,157	-0,170	-0,178	-0,178	-0,172	-0,163	-0,164	-0,167	-0,169	-0,173	-0,177	-0,183	-0,186	-0,181	-0,178	-0,178	-0,184	-0,189	-0,193	-0,193	-0,192	-0,195	-0,204	-0,218	-0,230	-0,234	-0,228	-0,209	-0,191	-0,188	-0,194	-0,204	-0,207	-0,194	-0,176	-0,175	-0,187	-0,194	-0,196	-0,202	-0,209	-0,212	-0,219	-0,226	-0,231	-0,230	-0,227	-0,224	-0,224	-0,223	-0,215	-0,206	-0,199	-0,193	-0,189	-0,182	-0,170	-0,160	-0,156	-0,159	-0,171	-0,178	-0,184	-0,203	-0,225	-0,229	-0,218	-0,207	-0,202	-0,205	-0,205	-0,201	-0,201	-0,198	-0,192	-0,188	-0,176	-0,161	-0,156	-0,162	-0,180	-0,200	-0,213	-0,218	-0,209	-0,190	-0,177	-0,173	-0,168	-0,163	-0,160	-0,156	-0,151	-0,141	-0,135	-0,138	-0,142	-0,146	-0,148	-0,154	-0,165	-0,181	-0,182	-0,171	-0,166	-0,167	-0,169	-0,164	-0,151	-0,140	-0,126	-0,113	-0,113	-0,117	-0,121	-0,128	-0,139	-0,145	-0,151	-0,163	-0,176	-0,186	-0,192	-0,196	-0,189	-0,174	-0,160	-0,157	-0,153	-0,150	-0,145	-0,132	-0,123	-0,119	-0,122	-0,126	-0,130	-0,135	-0,134	-0,130	-0,131	-0,135	-0,135	-0,132	-0,125	-0,129	-0,144	-0,161	-0,169	-0,165	-0,152	-0,141	-0,146	-0,155	-0,160	-0,158	-0,148	-0,137	-0,126	-0,117	-0,122	-0,128	-0,131	-0,130	-0,130	-0,132	-0,138	-0,146	-0,153	-0,163	-0,166	-0,151	-0,133	-0,120	-0,117	-0,111	-0,094	-0,075	-0,063	-0,059	-0,059	-0,074	-0,099	-0,122	-0,137	-0,138	-0,130	-0,121	-0,112	-0,105	-0,108	-0,111	-0,117	-0,119	-0,112	-0,101	-0,095	-0,094	-0,095	-0,107	-0,122	-0,130	-0,126	-0,119	-0,109	-0,093	-0,086	-0,089	-0,097	-0,105	-0,107	-0,103	-0,100	-0,096	-0,095	-0,099	-0,101	-0,101	-0,100	-0,099	-0,101	-0,105	-0,098	-0,089	-0,086	-0,091	-0,100	-0,104	-0,110	-0,114	-0,119	-0,119	-0,126	-0,132	-0,128	-0,121	-0,119	-0,118	-0,119	-0,113	-0,097	-0,081	-0,067	-0,059	-0,067	-0,071	-0,071	-0,076	-0,084	-0,092	-0,099	-0,102	-0,105	-0,100	-0,086	-0,071	-0,063	-0,061	-0,066	-0,068	-0,071	-0,075	-0,074	-0,077	-0,090	-0,107	-0,126	-0,145	-0,152	-0,140	-0,123	-0,105	-0,081	-0,063	-0,053	-0,044	-0,036	-0,030	-0,027	-0,030	-0,046	-0,075	-0,103	-0,121	-0,128	-0,125	-0,110	-0,090	-0,077	-0,068	-0,061	-0,067	-0,080	-0,091	-0,092	-0,091	-0,091	-0,090	-0,088	-0,090	-0,097	-0,096	-0,090	-0,083	-0,080	-0,080	-0,077	-0,069	-0,062	-0,060	-0,062	-0,067	-0,069	-0,059	-0,048	-0,042	-0,037	-0,037	-0,046	-0,060	-0,064	-0,063	-0,062	-0,063	-0,071	-0,077	-0,070	-0,062	-0,062	-0,060	-0,054	-0,045	-0,032	-0,019	-0,010	-0,006	-0,002	-0,009	-0,015	-0,008	0,005	0,015	0,022	0,012	-0,003	-0,016	-0,020	-0,019	-0,007	0,018	0,044	0,059	0,068	0,086	0,116	0,133	0,136	0,128	0,120	0,121	0,120	0,117	0,114	0,108	0,107	0,110	0,112	0,113	0,112	0,116	0,124	0,131	0,134	0,130	0,117	0,104	0,095	0,088	0,087	0,084	0,078	0,069	0,054	0,037	0,019	-0,001	-0,022	-0,034	-0,046	-0,059	-0,070	-0,069	-0,054	-0,035	-0,020	-0,014	-0,015	-0,019	-0,017	-0,023	-0,044	-0,070	-0,085	-0,092	-0,100	-0,106	-0,108	-0,112	-0,114	-0,107	-0,088	-0,075	-0,073	-0,074	-0,074	-0,076	-0,075	-0,074	-0,071	-0,073	-0,079	-0,081	-0,081	-0,080	-0,074	-0,068	-0,068	-0,067	-0,058	-0,048	-0,050	-0,061	-0,072	-0,077	-0,077	-0,078	-0,079	-0,074	-0,072	-0,071	-0,072	-0,082	-0,098	-0,108	-0,112	-0,117	-0,112	-0,096	-0,080	-0,068	-0,071	-0,073	-0,078	-0,082	-0,086	-0,085	-0,075	-0,067	-0,070	-0,071	-0,063	-0,058	-0,066	-0,077	-0,084	-0,083	-0,078	-0,074	-0,079	-0,086	-0,091	-0,093	-0,094	-0,092	-0,090	-0,083	-0,072	-0,055	-0,040	-0,036	-0,049	-0,060	-0,061	-0,063	-0,070	-0,079	-0,085	-0,073	-0,040	0,001	0,033	0,064	0,099	0,134	0,170	0,207	0,251	0,301	0,352	0,407	0,464	0,517	0,557	0,601	0,644	0,673	0,688	0,699	0,712	0,721	0,726	0,727	0,719	0,686	0,626	0,537	0,435	0,325	0,215	0,117	0,025	-0,051	-0,120	-0,175	-0,214	-0,241	-0,261	-0,273	-0,273	-0,263	-0,244	-0,218	-0,179	-0,127	-0,078	-0,047	-0,029	-0,020	-0,021	-0,029	-0,040	-0,048	-0,052	-0,060	-0,067	-0,066	-0,064	-0,064	-0,064	-0,060	-0,056	-0,058	-0,062	-0,071	-0,084	-0,093	-0,091	-0,079	-0,067	-0,066	-0,070	-0,072	-0,072	-0,068	-0,064	-0,067	-0,073	-0,082	-0,086	-0,089	-0,088	-0,088	-0,090	-0,089	-0,082	-0,069	-0,048	-0,026	-0,020	-0,026	-0,035	-0,044	-0,050	-0,057	-0,066	-0,073	-0,072	-0,067	-0,057	-0,046	-0,038	-0,038	-0,034	-0,013	0,003	0,001	-0,015	-0,030	-0,036	-0,031	-0,023	-0,020	-0,021	-0,025	-0,026	-0,022	-0,018	-0,017	-0,015	-0,016	-0,021	-0,023	-0,023	-0,020	-0,016	-0,008	-0,003	0,001	0,002	-0,000	0,000	0,010	0,022	0,023	0,020	0,014	0,012	0,012	0,012	0,008	0,002	-0,006	-0,008	-0,003	0,005	0,003	-0,002	-0,000	0,005	0,007	0,003	0,000	0,009	0,015	0,016	0,008	0,002	0,001	0,002	0,005	0,007	0,012	0,022	0,032	0,037	0,036	0,035	0,031	0,026	0,027	0,037	0,041	0,038	0,030	0,014	0,004	0,003	-0,001	-0,007	-0,002	0,004	0,006	0,003	0,004	0,009	0,014	0,028	0,036	0,029	0,025	0,023	0,021	0,025	0,028	0,024	0,012	-0,000	-0,005	-0,002	0,003	0,005	0,004	0,006	0,011	0,016	0,019	0,015	0,009	0,003	-0,004	-0,004	0,000	-0,001	-0,011	-0,023	-0,019	-0,009	-0,012	-0,020	-0,016	-0,014	-0,013	-0,011	-0,003	0,002	0,008	0,021	0,029	0,029	0,022	0,008	-0,004	-0,001	0,007	0,008	-0,002	-0,018	-0,026	-0,024	-0,012	-0,003	0,004	0,020	0,037	0,048	0,050	0,049	0,049	0,046	0,039	0,039	0,044	0,053	0,061	0,066	0,068	0,074	0,078	0,071	0,053	0,040	0,039	0,035	0,034	0,028	0,022	0,017	0,014	0,019	0,025	0,033	0,043	0,052	0,057	0,055	0,052	0,045	0,032	0,023	0,024	0,028	0,031	0,031	0,037	0,046	0,053	0,052	0,042	0,031	0,022	0,019	0,021	0,022	0,023	0,033	0,054	0,064	0,055	0,040	0,034	0,040	0,049	0,056	0,057	0,059	0,060	0,068	0,075	0,077	0,070	0,064	0,051	0,030	0,016	0,015	0,018	0,019	0,025	0,041	0,052	0,048	0,044	0,035	0,027	0,028	0,035	0,043	0,050	0,063	0,078	0,089	0,092	0,090	0,091	0,089	0,082	0,071	0,061	0,052	0,046	0,037	0,033	0,042	0,057	0,068	0,068	0,065	0,067	0,077	0,090	0,091	0,070	0,041	0,020	0,015	0,017	0,033	0,059	0,090	0,108	0,105	0,095	0,089	0,087	0,088	0,084	0,091	0,100	0,102	0,099	0,095	0,086	0,077	0,070	0,063	0,063	0,070	0,073	0,072	0,071	0,066	0,060	0,053	0,046	0,046	0,057	0,074	0,087	0,099	0,102	0,104	0,103	0,098	0,083	0,062	0,052	0,045	0,046	0,048	0,055	0,065	0,069	0,067	0,061	0,060	0,055	0,046	0,041	0,057	0,085	0,097	0,095	0,098	0,100	0,098	0,096	0,086	0,074	0,071	0,067	0,065	0,066	0,068	0,072	0,077	0,088	0,105	0,111	0,105	0,088	0,065	0,058	0,071	0,088	0,095	0,096	0,090	0,084	0,074	0,061	0,053	0,051	0,053	0,056	0,072	0,085	0,097	0,107	0,113	0,112	0,100	0,086	0,072	0,068	0,069	0,065	0,063	0,070	0,076	0,065	0,055	0,048	0,047	0,057	0,066	0,070	0,069	0,065	0,065	0,066	0,063	0,056	0,037	0,016	0,009	0,019	0,036	0,046	0,055	0,071	0,095	0,110	0,110	0,105	0,099	0,084	0,076	0,080	0,086	0,083	0,083	0,088	0,088	0,084	0,079	0,081	0,079	0,073	0,075	0,078	0,084	0,086	0,086	0,090	0,094	0,096	0,098	0,099	0,097	0,094	0,083	0,068	0,055	0,046	0,048	0,062	0,070	0,069	0,064	0,055	0,039	0,026	0,031	0,045	0,064	0,077	0,086	0,098	0,104	0,109	0,115	0,109	0,091	0,071	0,051	0,038	0,039	0,045	0,049	0,057	0,062	0,057	0,057	0,064	0,070	0,065	0,056	0,047	0,045	0,059	0,081	0,093	0,098	0,097	0,087	0,082	0,083	0,090	0,095	0,097	0,096	0,103	0,112	0,114	0,116	0,115	0,119	0,136	0,152	0,155	0,161	0,164	0,158	0,143	0,134	0,136	0,143	0,151	0,155	0,154	0,149	0,147	0,153	0,163	0,172	0,180	0,189	0,200	0,213	0,228	0,248	0,264	0,272	0,268	0,262	0,254	0,246	0,238	0,226	0,213	0,213	0,221	0,225	0,218	0,210	0,203	0,201	0,204	0,199	0,193	0,186	0,168	0,155	0,151	0,152	0,149	0,140	0,133	0,132	0,123	0,107	0,096	0,087	0,079	0,074	0,070	0,073	0,072	0,067	0,062	0,057	0,051	0,047	0,056	0,059	0,058	0,051	0,038	0,029	0,023	0,019	0,018	0,025	0,037	0,046	0,048	0,047	0,049	0,052	0,050	0,048	0,046	0,047	0,050	0,048	0,039	0,047	0,065	0,070	0,064	0,055	0,056	0,056	0,055	0,049	0,040	0,038	0,039	0,040	0,038	0,035	0,035	0,037	0,035	0,027	0,016	0,017	0,029	0,041	0,050	0,062	0,065	0,071	0,074	0,071	0,068	0,068	0,068	0,070	0,072	0,067	0,064	0,063	0,062	0,063	0,056	0,046	0,043	0,046	0,057	0,064	0,065	0,059	0,053	0,046	0,038	0,042	0,055	0,070	0,087	0,109	0,129	0,125	0,116	0,116	0,129	0,151	0,184	0,221	0,262	0,306	0,355	0,408	0,460	0,517	0,584	0,646	0,694	0,734	0,766	0,793	0,809	0,814	0,818	0,820	0,812	0,790	0,756	0,708	0,648	0,566	0,472	0,376	0,284	0,202	0,130	0,066	0,002	-0,054	-0,098	-0,122	-0,136	-0,151	-0,155	-0,142	-0,114	-0,087	-0,061	-0,033	-0,002	0,025	0,047	0,053	0,047	0,035	0,027	0,029	0,039	0,043	0,046	0,053	0,056	0,055	0,053	0,047	0,036	0,019	0,003	-0,003	-0,006	-0,019	-0,031	-0,029	-0,012	0,017	0,045	0,052	0,052	0,057	0,063	0,063	0,056	0,047	0,037	0,028	0,024	0,021	0,018	0,008	-0,002	-0,002	-0,001	0,001	0,000	-0,004	-0,003	0,006	0,024	0,048	0,060	0,063	0,060	0,054	0,050	0,042	0,036	0,025	0,009	-0,002	0,014	0,035	0,046	0,051	0,053	0,057	0,055	0,056	0,056	0,057	0,065	0,070	0,076	0,084	0,084	0,079	0,077	0,077	0,074	0,070	0,066	0,055	0,034	0,022	0,025	0,033	0,044	0,054	0,058	0,065	0,068	0,068	0,078	0,097	0,108	0,107	0,095	0,086	0,086	0,083	0,071	0,064	0,062	0,063	0,067	0,063	0,057	0,055	0,054	0,065	0,079	0,087	0,084	0,075	0,067	0,060	0,053	0,052	0,053	0,049	0,050	0,058	0,063	0,065	0,064	0,071	0,076	0,078	0,078	0,085	0,085	0,080	0,079	0,078	0,072	0,066	0,068	0,075	0,077	0,076	0,077	0,076	0,068	0,060	0,048	0,039	0,035	0,035	0,036	0,027	0,026	0,040	0,055	0,062	0,071	0,077	0,076	0,067	0,059	0,057	0,051	0,040	0,022	0,008	0,011	0,031	0,053	0,067	0,069	0,061	0,051	0,055	0,064	0,060	0,049	0,039	0,032	0,025	0,019	0,015	0,017	0,024	0,033	0,044	0,056	0,066	0,073	0,076	0,075	0,069	0,063	0,053	0,052	0,052	0,048	0,037	0,037	0,038	0,035	0,028	0,025	0,025	0,031	0,035	0,041	0,056	0,066	0,074	0,086	0,098	0,102	0,099	0,092	0,083	0,078	0,073	0,070	0,066	0,056	0,044	0,039	0,036	0,036	0,037	0,037	0,037	0,045	0,063	0,071	0,069	0,065	0,059	0,052	0,045	0,045	0,041	0,039	0,049	0,068	0,081	0,090	0,107	0,120	0,124	0,110	0,083	0,060	0,057	0,065	0,070	0,076	0,084	0,083	0,072	0,058	0,042	0,025	0,026	0,050	0,074	0,084	0,087	0,083	0,079	0,075	0,072	0,071	0,082	0,095	0,094	0,081	0,069	0,073	0,083	0,087	0,078	0,068	0,067	0,076	0,089	0,100	0,110	0,110	0,109	0,105	0,101	0,097	0,095	0,094	0,094	0,092	0,091	0,094	0,095	0,092	0,083	0,069	0,058	0,051	0,051	0,062	0,080	0,092	0,105	0,112	0,108	0,101	0,100	0,103	0,108	0,116	0,110	0,103	0,092	0,075	0,061	0,055	0,052	0,050	0,044	0,042	0,044	0,051	0,058	0,061	0,066	0,072	0,071	0,063	0,056	0,052	0,040	0,035	0,052	0,080	0,114	0,139	0,145	0,134	0,116	0,101	0,092	0,092	0,098	0,105	0,104	0,100	0,093	0,087	0,075	0,067	0,062	0,061	0,065	0,067	0,068	0,063	0,064	0,070	0,072	0,074	0,079	0,084	0,088	0,098	0,107	0,117	0,113	0,091	0,073	0,064	0,065	0,065	0,065	0,069	0,081	0,095	0,105	0,099	0,091	0,088	0,085	0,085	0,090	0,089	0,078	0,067	0,063	0,058	0,054	0,057	0,064	0,076	0,087	0,086	0,075	0,061	0,054	0,055	0,059	0,064	0,068	0,070	0,069	0,076	0,087	0,099	0,101	0,094	0,081	0,073	0,068	0,060	0,056	0,057	0,054	0,046	0,039	0,037	0,043	0,058	0,065	0,070	0,074	0,074	0,076	0,078	0,088	0,100	0,103	0,100	0,090	0,082	0,074	0,069	0,070	0,069	0,069	0,075	0,074	0,076	0,070	0,059	0,051	0,054	0,068	0,089	0,103	0,103	0,101	0,097	0,099	0,104	0,103	0,095	0,091	0,097	0,108	0,109	0,096	0,077	0,062	0,054	0,056	0,061	0,071	0,077	0,079	0,078	0,080	0,084	0,092	0,098	0,097	0,090	0,085	0,078	0,070	0,058	0,044	0,034	0,034	0,042	0,056	0,064	0,070	0,076	0,075	0,071	0,061	0,050	0,043	0,037	0,045	0,063	0,080	0,079	0,075	0,066	0,059	0,058	0,058	0,055	0,059	0,064	0,071	0,079	0,085	0,091	0,099	0,105	0,113	0,110	0,095	0,081	0,070	0,061	0,054	0,052	0,054	0,062	0,062	0,059	0,059	0,058	0,057	0,053	0,058	0,074	0,092	0,102	0,107	0,108	0,113	0,119	0,122	0,120	0,117	0,113	0,110	0,112	0,117	0,120	0,120	0,122	0,128	0,136	0,151	0,166	0,181	0,186	0,181	0,169	0,154	0,147	0,148	0,145	0,137	0,130	0,140	0,161	0,173	0,172	0,169	0,169	0,162	0,152	0,150	0,155	0,164	0,169	0,173	0,178	0,179	0,182	0,185	0,181	0,176	0,173	0,176	0,186	0,192	0,185	0,169	0,156	0,154	0,157	0,158	0,162	0,164	0,157	0,152	0,154	0,155	0,154	0,147	0,124	0,090	0,069	0,061	0,059	0,063	0,069	0,071	0,067	0,061	0,060	0,068	0,069	0,067	0,065	0,059	0,045	0,033	0,027	0,025	0,023	0,018	0,010	0,003	0,002	0,002	0,002	0,006	0,013	0,025	0,037	0,041	0,040	0,040	0,032	0,021	0,009	-0,002	-0,001	0,012	0,023	0,027	0,026	0,021	0,015	0,012	0,002	0,000	0,009	0,021	0,025	0,028	0,030	0,026	0,019	0,010	-0,006	-0,022	-0,022	-0,009	-0,005	-0,007	-0,005	-0,000	0,011	0,021	0,022	0,024	0,030	0,037	0,044	0,054	0,060	0,057	0,052	0,044	0,038	0,033	0,028	0,027	0,030	0,029	0,027	0,027	0,028	0,026	0,023	0,024	0,024	0,026	0,028	0,037	0,047	0,058	0,068	0,076	0,081	0,076	0,054	0,035	0,045	0,071	0,099	0,141	0,194	0,243	0,281	0,318	0,358	0,401	0,445	0,495	0,557	0,614	0,661	0,698	0,721	0,731	0,733	0,742	0,759	0,772	0,776	0,759	0,715	0,641	0,551	0,447	0,336	0,225	0,118	0,030	-0,040	-0,093	-0,127	-0,145	-0,159	-0,164	-0,162	-0,154	-0,144	-0,134	-0,121	-0,094	-0,058	-0,027	0,003	0,026	0,042	0,055	0,063	0,069	0,072	0,065	0,049	0,028	0,010	0,000	0,003	0,008	0,004	-0,004	-0,009	-0,015	-0,013	-0,017	-0,026	-0,029	-0,024	-0,018	-0,010	-0,002	-0,002	0,004	0,013	0,017	0,018	0,014	0,004	-0,007	-0,012	-0,015	-0,019	-0,016	-0,006	-0,003	-0,007	-0,010	-0,005	-0,001	0,004	0,012	0,021	0,027	0,033	0,031	0,022	0,013	0,007	-0,001	0,001	0,015	0,018	-0,005	-0,022	-0,023	-0,022	-0,026	-0,030	-0,010	0,025	0,054	0,074	0,084	0,085	0,078	0,065	0,054	0,047	0,045	0,039	0,033	0,027	0,029	0,034	0,038	0,038	0,039	0,045	0,048	0,040	0,032	0,023	0,021	0,027	0,031	0,029	0,022	0,021	0,022	0,016	0,008	0,003	0,000	-0,003	-0,003	0,003	0,011	0,016	0,025	0,034	0,046	0,060	0,079	0,096	0,102	0,096	0,083	0,070	0,062	0,047	0,023	0,010	0,011	0,014	0,028	0,044	0,045	0,033	0,024	0,025	0,035	0,038	0,033	0,028	0,036	0,045	0,050	0,044	0,032	0,027	0,024	0,022	0,022	0,021	0,022	0,026	0,030	0,038	0,045	0,049	0,050	0,052	0,050	0,039	0,031	0,034	0,035	0,037	0,047	0,055	0,053	0,039	0,025	0,023	0,030	0,037	0,048	0,054	0,056	0,056	0,058	0,065	0,071	0,065	0,058	0,049	0,030	0,006	-0,010	-0,020	-0,037	-0,043	-0,035	-0,024	-0,022	-0,015	-0,006	-0,003	-0,004	-0,005	-0,003	0,007	0,018	0,020	0,026	0,031	0,029	0,024	0,020	0,020	0,022	0,020	0,021	0,022	0,024	0,023	0,024	0,023	0,022	0,019	0,026	0,043	0,065	0,077	0,079	0,072	0,063	0,055	0,050	0,049	0,050	0,053	0,058	0,061	0,060	0,057	0,053	0,054	0,068	0,082	0,084	0,078	0,078	0,075	0,062	0,039	0,023	0,019	0,025	0,030	0,033	0,039	0,043	0,043	0,038	0,024	0,010	0,006	0,020	0,041	0,057	0,069	0,082	0,092	0,088	0,083	0,080	0,070	0,061	0,052	0,043	0,037	0,033	0,031	0,035	0,044	0,048	0,049	0,055	0,061	0,060	0,050	0,034	0,024	0,025	0,026	0,019	0,006	-0,007	-0,012	-0,006	0,010	0,028	0,048	0,069	0,083	0,086	0,078	0,076	0,082	0,084	0,076	0,075	0,071	0,070	0,070	0,067	0,055	0,044	0,040	0,035	0,033	0,035	0,041	0,046	0,044	0,037	0,034	0,035	0,039	0,052	0,064	0,075	0,083	0,084	0,074	0,054	0,036	0,024	0,025	0,037	0,047	0,049	0,052	0,052	0,053	0,051	0,053	0,061	0,064	0,065	0,070	0,079	0,088	0,092	0,090	0,079	0,059	0,043	0,034	0,024	0,009	0,002	0,001	-0,000	0,020	0,045	0,064	0,071	0,072	0,073	0,076	0,083	0,081	0,071	0,058	0,053	0,048	0,037	0,028	0,027	0,041	0,050	0,049	0,046	0,049	0,055	0,060	0,062	0,063	0,067	0,065	0,052	0,039	0,033	0,028	0,020	0,015	0,020	0,028	0,043	0,064	0,069	0,061	0,053	0,054	0,061	0,062	0,056	0,048	0,043	0,038	0,033	0,034	0,041	0,056	0,063	0,063	0,053	0,043	0,040	0,044	0,045	0,045	0,044	0,040	0,037	0,029	0,015	0,005	0,005	0,011	0,018	0,026	0,037	0,049	0,062	0,069	0,063	0,050	0,040	0,037	0,036	0,042	0,052	0,063	0,072	0,073	0,061	0,046	0,036	0,030	0,027	0,021	0,013	0,010	0,014	0,022	0,024	0,022	0,027	0,038	0,039	0,031	0,025	0,024	0,031	0,033	0,038	0,049	0,064	0,068	0,065	0,054	0,046	0,045	0,041	0,032	0,021	0,010	0,003	-0,003	-0,010	-0,002	0,017	0,034	0,045	0,062	0,080	0,083	0,083	0,080	0,074	0,062	0,046	0,026	0,005	-0,016	-0,020	-0,010	0,001	0,009	0,019	0,028	0,046	0,066	0,082	0,086	0,075	0,063	0,056	0,046	0,034	0,026	0,020	0,014	0,010	0,005	-0,002	-0,004	0,000	0,014	0,033	0,049	0,060	0,066	0,066	0,067	0,071	0,078	0,082	0,071	0,060	0,056	0,059	0,059	0,053	0,042	0,038	0,039	0,038	0,047	0,057	0,061	0,063	0,071	0,080	0,083	0,083	0,085	0,083	0,081	0,080	0,084	0,097	0,107	0,112	0,113	0,108	0,114	0,123	0,130	0,134	0,138	0,142	0,144	0,140	0,136	0,142	0,146	0,146	0,154	0,159	0,166	0,165	0,147	0,129	0,114	0,103	0,098	0,100	0,105	0,101	0,094	0,097	0,112	0,126	0,133	0,133	0,129	0,134	0,148	0,159	0,155	0,141	0,126	0,118	0,112	0,106	0,103	0,099	0,092	0,081	0,072	0,065	0,062	0,062	0,065	0,068	0,069	0,064	0,052	0,038	0,034	0,031	0,018	-0,003	-0,025	-0,036	-0,036	-0,034	-0,034	-0,035	-0,039	-0,042	-0,039	-0,031	-0,017	0,003	0,026	0,038	0,037	0,027	0,014	0,005	-0,003	-0,010	-0,015	-0,032	-0,043	-0,044	-0,039	-0,032	-0,023	-0,015	-0,013	-0,014	-0,020	-0,030	-0,039	-0,046	-0,050	-0,039	-0,027	-0,024	-0,023	-0,020	-0,020	-0,024	-0,024	-0,021	-0,014	0,003	0,018	0,025	0,021	0,004	-0,011	-0,012	-0,002	0,007	0,011	0,012	0,010	0,008	0,006	0,007	0,003	-0,010	-0,031	-0,047	-0,055	-0,047	-0,031	-0,018	-0,012	-0,012	-0,014	-0,013	-0,014	-0,020	-0,022	-0,011	0,006	0,011	0,005	0,004	0,000	-0,003	-0,008	-0,010	-0,004	0,022	0,064	0,113	0,155	0,183	0,199	0,211	0,237	0,282	0,333	0,384	0,434	0,483	0,534	0,586	0,637	0,680	0,712	0,735	0,754	0,770	0,787	0,797	0,786	0,735	0,663	0,582	0,498	0,399	0,288	0,185	0,092	0,011	-0,063	-0,123	-0,175	-0,211	-0,227	-0,232	-0,226	-0,212	-0,193	-0,171	-0,154	-0,139	-0,116	-0,086	-0,053	-0,036	-0,035	-0,038	-0,030	-0,017	0,002	0,016	0,021	0,020	0,014	0,007	0,002	-0,009	-0,025	-0,037	-0,039	-0,033	-0,033	-0,040	-0,048	-0,049	-0,045	-0,034	-0,026	-0,030	-0,040	-0,051	-0,061	-0,068	-0,072	-0,072	-0,070	-0,066	-0,055	-0,045	-0,036	-0,033	-0,036	-0,039	-0,039	-0,030	-0,019	-0,005	0,001	0,002	-0,002	-0,015	-0,029	-0,039	-0,047	-0,050	-0,037	-0,023	-0,013	-0,007	-0,004	0,004	0,021	0,030	0,027	0,016	0,002	-0,013	-0,024	-0,030	-0,033	-0,034	-0,029	-0,026	-0,032	-0,048	-0,062	-0,068	-0,068	-0,060	-0,043	-0,032	-0,026	-0,015	-0,004	-0,007	-0,012	-0,020	-0,032	-0,037	-0,031	-0,022	-0,016	-0,018	-0,014	-0,003	0,005	0,006	0,003	0,001	0,001	-0,004	-0,017	-0,025	-0,029	-0,016	0,008	0,024	0,027	0,022	0,012	0,002	-0,010	-0,019	-0,030	-0,044	-0,048	-0,043	-0,030	-0,011	0,006	0,020	0,025	0,022	0,020	0,022	0,025	0,026	0,029	0,028	0,024	0,014	0,005	-0,002	-0,009	-0,014	-0,016	-0,014	-0,012	-0,012	-0,017	-0,017	-0,014	-0,013	-0,013	-0,007	0,001	0,003	0,007	0,006	0,004	-0,001	-0,006	-0,016	-0,023	-0,022	-0,021	-0,025	-0,032	-0,038	-0,046	-0,051	-0,058	-0,056	-0,048	-0,033	-0,014	0,001	0,002	-0,008	-0,023	-0,037	-0,030	-0,010	0,005	0,012	0,012	0,001	-0,015	-0,027	-0,041	-0,047	-0,041	-0,036	-0,041	-0,040	-0,037	-0,035	-0,037	-0,041	-0,039	-0,039	-0,038	-0,032	-0,029	-0,031	-0,028	-0,019	-0,011	-0,007	-0,007	-0,011	-0,019	-0,022	-0,021	-0,019	-0,012	0,001	0,012	0,015	0,020	0,017	0,001	-0,013	-0,015	-0,007	0,008	0,022	0,030	0,032	0,028	0,026	0,022	0,026	0,027	0,023	0,016	0,010	0,007	0,004	-0,007	-0,023	-0,034	-0,035	-0,023	-0,014	-0,017	-0,014	-0,003	0,001	-0,000	-0,006	-0,011	-0,008	0,003	0,024	0,049	0,062	0,056	0,044	0,029	0,008	-0,012	-0,031	-0,048	-0,044	-0,023	0,004	0,024	0,028	0,025	0,018	0,012	0,015	0,022	0,023	0,020	0,018	0,009	-0,002	-0,002	-0,008	-0,023	-0,044	-0,057	-0,049	-0,036	-0,024	-0,014	-0,006	0,005	0,020	0,035	0,037	0,026	0,009	0,003	0,014	0,027	0,028	0,022	0,009	0,002	-0,006	-0,020	-0,026	-0,020	-0,008	-0,001	0,001	-0,002	0,000	0,004	0,001	-0,008	-0,006	0,006	0,018	0,028	0,034	0,035	0,036	0,030	0,022	0,012	0,005	0,001	-0,004	-0,008	-0,012	-0,009	0,001	0,010	0,012	0,004	-0,003	-0,007	-0,010	-0,013	-0,005	0,008	0,017	0,019	0,022	0,026	0,028	0,026	0,014	0,002	0,003	0,010	0,015	0,015	0,018	0,026	0,031	0,029	0,016	-0,001	-0,013	-0,018	-0,011	-0,001	0,005	0,008	0,007	0,014	0,018	0,023	0,021	0,017	0,014	0,011	-0,003	-0,006	0,004	0,010	0,004	-0,003	-0,005	-0,003	0,003	0,007	0,009	0,005	-0,004	-0,010	-0,009	-0,002	0,010	0,024	0,033	0,032	0,021	0,012	0,009	0,013	0,020	0,027	0,032	0,028	0,024	0,017	0,010	0,007	0,003	-0,002	-0,005	-0,013	-0,026	-0,038	-0,048	-0,058	-0,054	-0,028	0,006	0,029	0,041	0,042	0,033	0,027	0,024	0,032	0,047	0,056	0,051	0,038	0,025	0,012	0,002	0,007	0,017	0,031	0,044	0,048	0,047	0,041	0,031	0,018	0,003	-0,018	-0,033	-0,037	-0,033	-0,027	-0,021	-0,010	0,002	0,012	0,016	0,025	0,026	0,019	0,011	0,008	0,006	-0,000	-0,012	-0,023	-0,030	-0,032	-0,024	-0,007	0,014	0,031	0,042	0,044	0,039	0,029	0,021	0,018	0,013	0,007	0,010	0,019	0,026	0,031	0,033	0,034	0,032	0,016	-0,002	-0,015	-0,015	-0,014	-0,019	-0,024	-0,023	-0,020	-0,012	-0,006	-0,007	-0,016	-0,024	-0,025	-0,009	0,020	0,047	0,054	0,052	0,051	0,053	0,061	0,066	0,063	0,054	0,050	0,052	0,065	0,076	0,080	0,082	0,075	0,063	0,051	0,049	0,055	0,056	0,050	0,044	0,036	0,031	0,031	0,043	0,055	0,065	0,076	0,078	0,077	0,082	0,087	0,092	0,098	0,111	0,124	0,123	0,116	0,117	0,123	0,130	0,127	0,117	0,109	0,097	0,081	0,079	0,088	0,093	0,101	0,111	0,115	0,111	0,107	0,109	0,122	0,130	0,133	0,139	0,141	0,141	0,142	0,135	0,119	0,109	0,105	0,096	0,087	0,081	0,078	0,073	0,065	0,053	0,040	0,029	0,023	0,022	0,024	0,035	0,047	0,052	0,046	0,033	0,020	0,005	-0,003	-0,007	-0,013	-0,022	-0,026	-0,029	-0,027	-0,029	-0,032	-0,025	-0,014	-0,006	-0,007	-0,014	-0,020	-0,023	-0,024	-0,029	-0,035	-0,040	-0,042	-0,041	-0,037	-0,033	-0,029	-0,021	-0,012	-0,010	-0,015	-0,027	-0,035	-0,029	-0,018	-0,016	-0,021	-0,027	-0,033	-0,041	-0,044	-0,046	-0,046	-0,051	-0,061	-0,064	-0,067	-0,070	-0,070	-0,062	-0,043	-0,023	-0,007	0,005	0,016	0,018	0,013	0,010	0,010	0,004	-0,006	-0,016	-0,026	-0,034	-0,030	-0,028	-0,031	-0,016	-0,001	0,002	-0,002	-0,012	-0,021	-0,025	-0,024	-0,011	0,003	0,007	0,007	0,001	-0,003	-0,005	-0,010	-0,016	-0,021	-0,022	-0,021	-0,016	-0,011	-0,003	0,016	0,039	0,062	0,095	0,134	0,181	0,237	0,298	0,360	0,418	0,473	0,526	0,571	0,614	0,662	0,713	0,747	0,771	0,785	0,797	0,803	0,799	0,792	0,770	0,724	0,665	0,588	0,487	0,371	0,252	0,143	0,048	-0,032	-0,104	-0,168	-0,209	-0,237	-0,256	-0,263	-0,256	-0,238	-0,211	-0,186	-0,164	-0,145	-0,121	-0,090	-0,061	-0,034	-0,016	-0,005	0,009	0,014	0,009	-0,002	-0,012	-0,018	-0,023	-0,022	-0,018	-0,019	-0,017	-0,018	-0,022	-0,025	-0,027	-0,028	-0,035	-0,040	-0,045	-0,046	-0,044	-0,047	-0,051	-0,051	-0,047	-0,041	-0,041	-0,051	-0,057	-0,051	-0,032	-0,014	-0,010	-0,023	-0,034	-0,038	-0,038	-0,037	-0,029	-0,022	-0,021	-0,024	-0,030	-0,032	-0,033	-0,035	-0,039	-0,042	-0,036	-0,030	-0,029	-0,027	-0,024	-0,024	-0,020	-0,011	-0,007	-0,009	-0,013	-0,018	-0,020	-0,029	-0,037	-0,039	-0,033	-0,028	-0,020	-0,014	-0,009	-0,004	-0,000	0,004	0,006	0,006	0,002	-0,001	-0,012	-0,028	-0,051	-0,070	-0,071	-0,059	-0,045	-0,038	-0,031	-0,017	0,002	0,025	0,043	0,052	0,053	0,057	0,061	0,064	0,060	0,045	0,031	0,019	0,003	-0,013	-0,025	-0,029	-0,025	-0,019	-0,010	-0,002	0,002	0,007	0,002	-0,004	-0,004	0,001	0,007	0,004	0,001	0,007	0,015	0,016	0,010	-0,001	-0,008	-0,006	-0,000	0,004	0,001	-0,008	-0,016	-0,020	-0,021	-0,020	-0,017	-0,005	0,005	0,003	0,005	0,014	0,019	0,019	0,019	0,008	-0,008	-0,026	-0,047	-0,058	-0,058	-0,044	-0,024	-0,004	0,010	0,017	0,021	0,027	0,034	0,031	0,026	0,020	0,013	-0,000	-0,018	-0,037	-0,048	-0,050	-0,056	-0,058	-0,054	-0,050	-0,051	-0,048	-0,049	-0,043	-0,023	-0,007	0,001	0,011	0,014	0,005	0,006	0,008	0,005	-0,008	-0,023	-0,033	-0,039	-0,042	-0,041	-0,041	-0,040	-0,032	-0,025	-0,013	-0,005	-0,008	-0,015	-0,014	-0,002	0,014	0,022	0,019	0,013	0,004	-0,001	-0,005	-0,006	-0,006	-0,009	-0,007	-0,005	-0,008	-0,012	-0,014	-0,017	-0,019	-0,023	-0,020	-0,006	0,016	0,039	0,048	0,044	0,043	0,049	0,052	0,052	0,048	0,044	0,037	0,032	0,027	0,021	0,018	0,018	0,012	0,008	0,005	0,005	0,007	0,006	-0,002	-0,013	-0,018	-0,022	-0,028	-0,035	-0,040	-0,038	-0,025	-0,009	0,010	0,029	0,046	0,050	0,050	0,053	0,051	0,049	0,049	0,049	0,050	0,052	0,045	0,030	0,013	-0,000	-0,003	0,001	0,004	0,003	0,010	0,023	0,027	0,028	0,033	0,033	0,027	0,015	-0,003	-0,015	-0,019	-0,012	-0,007	-0,009	-0,013	-0,011	-0,008	-0,000	0,018	0,028	0,031	0,034	0,030	0,019	0,014	0,007	-0,002	-0,011	-0,017	-0,010	0,002	0,010	0,014	0,015	0,015	0,015	0,014	0,003	-0,008	-0,012	-0,013	-0,009	0,001	0,014	0,015	0,009	0,004	0,008	0,017	0,016	0,007	0,004	0,005	0,012	0,016	0,014	0,015	0,021	0,027	0,030	0,032	0,030	0,017	0,000	-0,010	-0,008	-0,000	0,008	0,014	0,013	0,012	0,013	0,016	0,015	0,010	0,002	-0,003	-0,012	-0,024	-0,024	-0,019	-0,007	0,007	0,021	0,022	0,014	0,006	0,014	0,024	0,020	0,004	-0,015	-0,028	-0,036	-0,046	-0,050	-0,039	-0,022	-0,004	0,014	0,030	0,047	0,052	0,045	0,035	0,032	0,031	0,027	0,021	0,016	0,013	0,009	0,003	-0,003	-0,010	-0,020	-0,024	-0,025	-0,024	-0,020	-0,022	-0,024	-0,023	-0,020	-0,020	-0,020	-0,022	-0,015	0,002	0,018	0,030	0,034	0,034	0,026	0,015	0,005	0,005	0,009	0,017	0,026	0,032	0,033	0,027	0,015	0,003	0,001	0,010	0,024	0,034	0,034	0,024	0,011	0,005	-0,004	-0,022	-0,040	-0,045	-0,038	-0,020	0,003	0,016	0,023	0,027	0,028	0,028	0,034	0,035	0,028	0,021	0,013	0,011	0,015	0,014	0,008	0,007	0,007	0,006	0,001	-0,007	-0,014	-0,011	0,002	0,016	0,022	0,023	0,026	0,033	0,037	0,034	0,030	0,021	0,010	0,004	-0,003	-0,005	-0,004	-0,006	-0,011	-0,014	-0,011	-0,002	0,003	0,015	0,025	0,027	0,023	0,018	0,025	0,039	0,043	0,041	0,042	0,042	0,041	0,035	0,026	0,016	0,012	0,011	0,008	-0,000	0,001	0,017	0,034	0,043	0,046	0,049	0,052	0,059	0,069	0,073	0,073	0,075	0,076	0,075	0,072	0,066	0,063	0,064	0,068	0,083	0,120	0,160	0,184	0,185	0,170	0,153	0,147	0,151	0,151	0,145	0,136	0,122	0,112	0,105	0,092	0,086	0,092	0,104	0,114	0,118	0,115	0,106	0,101	0,091	0,091	0,088	0,086	0,086	0,084	0,075	0,065	0,059	0,061	0,060	0,057	0,059	0,070	0,086	0,098	0,101	0,105	0,102	0,092	0,080	0,063	0,044	0,033	0,022	0,009	0,004	0,004	-0,000	-0,011	-0,030	-0,047	-0,056	-0,053	-0,047	-0,046	-0,048	-0,045	-0,036	-0,023	-0,009	0,000	0,008	0,009	0,001	-0,003	-0,016	-0,036	-0,051	-0,062	-0,060	-0,043	-0,024	-0,012	-0,011	-0,013	-0,009	-0,004	-0,005	-0,011	-0,011	-0,008	-0,012	-0,019	-0,026	-0,034	-0,043	-0,048	-0,054	-0,055	-0,046	-0,032	-0,016	-0,006	-0,001	0,005	0,010	0,013	0,011	0,003	-0,009	-0,018	-0,030	-0,035	-0,034	-0,028	-0,028	-0,029	-0,029	-0,028	-0,026	-0,020	-0,019	-0,023	-0,030	-0,041	-0,050	-0,050	-0,041	-0,031	-0,022	-0,011	-0,010	-0,015	-0,023	-0,026	-0,026	-0,024	-0,021	-0,016	-0,014	-0,004	0,009	0,015	0,016	0,013	0,024	0,045	0,071	0,102	0,139	0,181	0,230	0,287	0,339	0,393	0,445	0,496	0,545	0,591	0,636	0,678	0,708	0,733	0,758	0,783	0,800	0,809	0,810	0,805	0,773	0,703	0,608	0,501	0,383	0,265	0,162	0,068	-0,027	-0,110	-0,170	-0,215	-0,239	-0,257	-0,267	-0,269	-0,254	-0,222	-0,181	-0,146	-0,120	-0,107	-0,091	-0,069	-0,048	-0,032	-0,019	-0,008	-0,006	-0,011	-0,019	-0,025	-0,029	-0,038	-0,045	-0,053	-0,060	-0,061	-0,060	-0,059	-0,050	-0,034	-0,022	-0,026	-0,042	-0,054	-0,055	-0,053	-0,055	-0,063	-0,075	-0,088	-0,095	-0,092	-0,086	-0,084	-0,093	-0,091	-0,078	-0,059	-0,037	-0,027	-0,029	-0,026	-0,029	-0,033	-0,029	-0,034	-0,045	-0,057	-0,062	-0,068	-0,072	-0,069	-0,063	-0,061	-0,059	-0,055	-0,046	-0,034	-0,029	-0,022	-0,017	-0,020	-0,030	-0,034	-0,030	-0,027	-0,034	-0,042	-0,050	-0,065	-0,076	-0,083	-0,085	-0,072	-0,051	-0,030	-0,016	-0,009	-0,009	-0,011	-0,010	-0,012	-0,018	-0,023	-0,030	-0,035	-0,053	-0,074	-0,078	-0,068	-0,050	-0,036	-0,024	-0,018	-0,014	-0,004	0,007	0,014	0,018	0,020	0,018	0,012	0,007	0,001	-0,014	-0,033	-0,046	-0,056	-0,057	-0,055	-0,053	-0,056	-0,063	-0,072	-0,077	-0,067	-0,051	-0,033	-0,015	-0,002	0,002	0,008	0,014	0,019	0,018	0,009	-0,005	-0,016	-0,022	-0,031	-0,043	-0,060	-0,075	-0,077	-0,079	-0,082	-0,075	-0,058	-0,028	-0,003	0,008	0,010	0,007	0,001	-0,001	-0,005	-0,009	-0,017	-0,027	-0,039	-0,046	-0,048	-0,043	-0,038	-0,041	-0,038	-0,026	-0,014	-0,011	-0,022	-0,039	-0,051	-0,060	-0,064	-0,066	-0,070	-0,071	-0,071	-0,069	-0,059	-0,048	-0,046	-0,046	-0,050	-0,057	-0,061	-0,062	-0,064	-0,067	-0,070	-0,074	-0,070	-0,065	-0,065	-0,071	-0,076	-0,072	-0,064	-0,066	-0,077	-0,086	-0,090	-0,087	-0,085	-0,081	-0,077	-0,068	-0,054	-0,043	-0,038	-0,041	-0,037	-0,031	-0,039	-0,038	-0,017	0,005	0,013	0,004	-0,007	-0,008	-0,006	-0,010	-0,015	-0,017	-0,018	-0,023	-0,029	-0,037	-0,040	-0,043	-0,041	-0,034	-0,031	-0,029	-0,030	-0,044	-0,056	-0,065	-0,071	-0,076	-0,074	-0,060	-0,040	-0,024	-0,015	-0,007	0,000	0,008	0,015	0,019	0,019	0,016	0,005	-0,012	-0,034	-0,052	-0,065	-0,075	-0,078	-0,076	-0,075	-0,068	-0,055	-0,041	-0,039	-0,044	-0,052	-0,050	-0,043	-0,042	-0,035	-0,026	-0,022	-0,021	-0,032	-0,049	-0,058	-0,058	-0,050	-0,035	-0,017	-0,006	-0,003	-0,011	-0,018	-0,024	-0,026	-0,034	-0,038	-0,042	-0,045	-0,048	-0,048	-0,045	-0,037	-0,025	-0,019	-0,022	-0,028	-0,031	-0,034	-0,032	-0,025	-0,020	-0,016	-0,016	-0,016	-0,020	-0,026	-0,031	-0,036	-0,046	-0,063	-0,077	-0,090	-0,097	-0,098	-0,087	-0,067	-0,050	-0,042	-0,032	-0,023	-0,016	-0,009	-0,005	-0,003	0,002	0,007	0,005	0,000	-0,005	-0,015	-0,030	-0,047	-0,054	-0,056	-0,061	-0,069	-0,071	-0,070	-0,069	-0,058	-0,043	-0,032	-0,030	-0,034	-0,034	-0,027	-0,025	-0,025	-0,024	-0,025	-0,032	-0,034	-0,037	-0,048	-0,057	-0,057	-0,052	-0,043	-0,034	-0,026	-0,016	-0,009	-0,014	-0,031	-0,038	-0,030	-0,019	-0,006	-0,000	-0,009	-0,025	-0,047	-0,062	-0,069	-0,070	-0,067	-0,059	-0,052	-0,050	-0,046	-0,045	-0,052	-0,057	-0,052	-0,039	-0,032	-0,035	-0,045	-0,055	-0,065	-0,072	-0,078	-0,082	-0,080	-0,065	-0,050	-0,044	-0,048	-0,058	-0,064	-0,063	-0,055	-0,048	-0,046	-0,044	-0,049	-0,060	-0,070	-0,079	-0,082	-0,083	-0,091	-0,098	-0,100	-0,091	-0,076	-0,060	-0,047	-0,038	-0,037	-0,040	-0,037	-0,036	-0,038	-0,034	-0,034	-0,036	-0,032	-0,018	-0,014	-0,027	-0,042	-0,055	-0,067	-0,071	-0,066	-0,059	-0,060	-0,067	-0,075	-0,076	-0,078	-0,083	-0,081	-0,067	-0,053	-0,045	-0,041	-0,032	-0,017	-0,012	-0,022	-0,043	-0,063	-0,072	-0,073	-0,075	-0,080	-0,081	-0,078	-0,071	-0,071	-0,072	-0,074	-0,065	-0,052	-0,043	-0,041	-0,038	-0,031	-0,022	-0,014	-0,009	-0,011	-0,023	-0,034	-0,040	-0,048	-0,052	-0,057	-0,062	-0,066	-0,068	-0,071	-0,072	-0,074	-0,068	-0,061	-0,063	-0,055	-0,045	-0,041	-0,044	-0,056	-0,073	-0,082	-0,075	-0,055	-0,030	-0,011	0,007	0,020	0,031	0,030	0,028	0,033	0,039	0,045	0,044	0,041	0,032	0,022	0,016	0,015	0,015	0,013	0,005	-0,003	0,000	0,014	0,045	0,082	0,113	0,121	0,118	0,119	0,121	0,129	0,133	0,120	0,108	0,107	0,110	0,111	0,102	0,087	0,076	0,069	0,062	0,055	0,051	0,047	0,039	0,032	0,024	0,011	-0,004	-0,011	-0,016	-0,015	-0,020	-0,025	-0,025	-0,025	-0,024	-0,028	-0,037	-0,039	-0,042	-0,054	-0,065	-0,068	-0,063	-0,060	-0,065	-0,077	-0,096	-0,112	-0,123	-0,130	-0,134	-0,136	-0,136	-0,135	-0,128	-0,111	-0,092	-0,076	-0,072	-0,074	-0,068	-0,061	-0,058	-0,061	-0,069	-0,077	-0,084	-0,086	-0,089	-0,095	-0,108	-0,122	-0,128	-0,125	-0,116	-0,113	-0,115	-0,119	-0,121	-0,123	-0,129	-0,137	-0,144	-0,142	-0,129	-0,103	-0,080	-0,075	-0,083	-0,090	-0,092	-0,097	-0,104	-0,111	-0,118	-0,122	-0,124	-0,133	-0,133	-0,118	-0,108	-0,101	-0,095	-0,091	-0,094	-0,101	-0,114	-0,117	-0,116	-0,114	-0,114	-0,116	-0,126	-0,140	-0,154	-0,166	-0,170	-0,166	-0,155	-0,148	-0,146	-0,146	-0,145	-0,144	-0,137	-0,125	-0,107	-0,091	-0,075	-0,054	-0,030	-0,016	-0,011	-0,006	0,003	0,011	0,018	0,033	0,053	0,082	0,119	0,167	0,228	0,293	0,359	0,422	0,477	0,524	0,565	0,601	0,622	0,630	0,632	0,627	0,619	0,620	0,627	0,627	0,609	0,566	0,491	0,390	0,270	0,146	0,033	-0,067	-0,151	-0,209	-0,257	-0,293	-0,308	-0,310	-0,312	-0,311	-0,304	-0,288	-0,257	-0,221	-0,195	-0,179	-0,160	-0,137	-0,115	-0,097	-0,084	-0,074	-0,077	-0,092	-0,115	-0,136	-0,139	-0,129	-0,130	-0,150	-0,171	-0,183	-0,189	-0,191	-0,185	-0,178	-0,165	-0,147	-0,131	-0,125	-0,123	-0,111	-0,099	-0,094	-0,098	-0,111	-0,126	-0,143	-0,157	-0,163	-0,168	-0,170	-0,166	-0,163	-0,158	-0,154	-0,149	-0,140	-0,128	-0,115	-0,098	-0,085	-0,082	-0,079	-0,080	-0,082	-0,088	-0,093	-0,092	-0,093	-0,100	-0,109	-0,112	-0,111	-0,113	-0,110	-0,105	-0,105	-0,112	-0,120	-0,125	-0,116	-0,098	-0,084	-0,074	-0,074	-0,088	-0,106	-0,123	-0,132	-0,131	-0,128	-0,128	-0,129	-0,125	-0,116	-0,104	-0,092	-0,084	-0,081	-0,083	-0,088	-0,090	-0,102	-0,117	-0,127	-0,137	-0,139	-0,138	-0,138	-0,137	-0,131	-0,119	-0,105	-0,091	-0,076	-0,058	-0,045	-0,035	-0,030	-0,030	-0,040	-0,051	-0,054	-0,060	-0,067	-0,071	-0,070	-0,069	-0,070	-0,076	-0,083	-0,089	-0,097	-0,099	-0,101	-0,098	-0,088	-0,077	-0,074	-0,074	-0,069	-0,072	-0,085	-0,099	-0,099	-0,082	-0,069	-0,068	-0,072	-0,075	-0,082	-0,087	-0,087	-0,086	-0,088	-0,085	-0,074	-0,066	-0,059	-0,053	-0,049	-0,051	-0,057	-0,071	-0,091	-0,101	-0,108	-0,116	-0,121	-0,116	-0,105	-0,098	-0,097	-0,107	-0,120	-0,128	-0,131	-0,132	-0,125	-0,114	-0,111	-0,117	-0,133	-0,154	-0,171	-0,186	-0,183	-0,165	-0,142	-0,116	-0,095	-0,091	-0,100	-0,111	-0,125	-0,136	-0,133	-0,119	-0,114	-0,102	-0,083	-0,069	-0,070	-0,078	-0,084	-0,087	-0,088	-0,095	-0,105	-0,112	-0,122	-0,135	-0,145	-0,145	-0,137	-0,131	-0,124	-0,111	-0,090	-0,065	-0,048	-0,047	-0,057	-0,073	-0,085	-0,090	-0,091	-0,086	-0,084	-0,089	-0,103	-0,117	-0,125	-0,118	-0,109	-0,090	-0,073	-0,063	-0,062	-0,066	-0,069	-0,074	-0,074	-0,068	-0,061	-0,059	-0,064	-0,071	-0,080	-0,091	-0,102	-0,107	-0,103	-0,098	-0,097	-0,094	-0,093	-0,101	-0,118	-0,128	-0,132	-0,128	-0,118	-0,108	-0,103	-0,099	-0,089	-0,086	-0,092	-0,105	-0,116	-0,125	-0,126	-0,117	-0,110	-0,105	-0,092	-0,077	-0,065	-0,057	-0,059	-0,059	-0,056	-0,057	-0,063	-0,076	-0,091	-0,101	-0,105	-0,102	-0,103	-0,102	-0,098	-0,094	-0,095	-0,094	-0,100	-0,101	-0,096	-0,087	-0,081	-0,077	-0,071	-0,061	-0,053	-0,059	-0,075	-0,090	-0,101	-0,103	-0,097	-0,089	-0,081	-0,086	-0,103	-0,119	-0,131	-0,137	-0,132	-0,117	-0,104	-0,096	-0,087	-0,071	-0,056	-0,050	-0,055	-0,063	-0,073	-0,087	-0,095	-0,090	-0,077	-0,070	-0,071	-0,070	-0,070	-0,072	-0,079	-0,083	-0,087	-0,091	-0,089	-0,090	-0,100	-0,118	-0,137	-0,144	-0,134	-0,115	-0,104	-0,091	-0,073	-0,060	-0,065	-0,075	-0,078	-0,076	-0,071	-0,056	-0,036	-0,024	-0,028	-0,045	-0,058	-0,063	-0,074	-0,087	-0,099	-0,108	-0,102	-0,094	-0,091	-0,088	-0,084	-0,081	-0,081	-0,076	-0,076	-0,070	-0,062	-0,060	-0,066	-0,071	-0,071	-0,073	-0,070	-0,068	-0,077	-0,095	-0,111	-0,121	-0,128	-0,129	-0,130	-0,123	-0,105	-0,093	-0,089	-0,093	-0,097	-0,101	-0,089	-0,071	-0,057	-0,055	-0,057	-0,067	-0,080	-0,085	-0,092	-0,098	-0,097	-0,097	-0,106	-0,113	-0,115	-0,111	-0,103	-0,089	-0,073	-0,071	-0,083	-0,101	-0,107	-0,107	-0,106	-0,094	-0,079	-0,079	-0,080	-0,078	-0,074	-0,071	-0,072	-0,081	-0,094	-0,105	-0,111	-0,108	-0,096	-0,074	-0,051	-0,037	-0,036	-0,048	-0,063	-0,072	-0,079	-0,089	-0,092	-0,084	-0,069	-0,056	-0,050	-0,053	-0,059	-0,065	-0,075	-0,083	-0,089	-0,090	-0,080	-0,068	-0,061	-0,066	-0,080	-0,095	-0,106	-0,109	-0,106	-0,102	-0,103	-0,108	-0,109	-0,106	-0,095	-0,086	-0,078	-0,079	-0,078	-0,070	-0,062	-0,061	-0,060	-0,052	-0,043	-0,037	-0,037	-0,042	-0,041	-0,027	-0,018	-0,018	-0,022	-0,034	-0,048	-0,057	-0,054	-0,044	-0,047	-0,059	-0,064	-0,060	-0,062	-0,063	-0,057	-0,050	-0,043	-0,031	-0,017	0,001	0,018	0,035	0,048	0,060	0,066	0,065	0,059	0,052	0,053	0,055	0,057	0,049	0,038	0,041	0,056	0,067	0,075	0,081	0,084	0,079	0,071	0,075	0,088	0,104	0,119	0,111	0,086	0,068	0,051	0,034	0,030	0,035	0,031	0,023	0,013	-0,000	-0,019	-0,038	-0,055	-0,070	-0,084	-0,095	-0,100	-0,099	-0,095	-0,094	-0,093	-0,091	-0,090	-0,089	-0,086	-0,082	-0,084	-0,095	-0,111	-0,126	-0,134	-0,133	-0,125	-0,114	-0,104	-0,098	-0,094	-0,096	-0,101	-0,099	-0,090	-0,084	-0,085	-0,092	-0,102	-0,103	-0,103	-0,112	-0,122	-0,125	-0,128	-0,144	-0,158	-0,176	-0,187	-0,190	-0,185	-0,173	-0,163	-0,161	-0,157	-0,144	-0,131	-0,130	-0,137	-0,139	-0,129	-0,116	-0,113	-0,122	-0,133	-0,150	-0,162	-0,165	-0,151	-0,125	-0,100	-0,085	-0,078	-0,078	-0,077	-0,079	-0,088	-0,097	-0,105	-0,115	-0,124	-0,127	-0,134	-0,144	-0,150	-0,149	-0,145	-0,147	-0,143	-0,135	-0,128	-0,123	-0,124	-0,136	-0,145	-0,132	-0,113	-0,098	-0,084	-0,077	-0,074	-0,074	-0,076	-0,078	-0,077	-0,079	-0,084	-0,085	-0,072	-0,050	-0,020	0,020	0,052	0,092	0,144	0,198	0,245	0,296	0,349	0,401	0,440	0,465	0,491	0,523	0,553	0,579	0,595	0,611	0,631	0,646	0,646	0,617	0,555	0,468	0,366	0,257	0,147	0,045	-0,045	-0,130	-0,203	-0,257	-0,287	-0,300	-0,308	-0,307	-0,297	-0,279	-0,255	-0,232	-0,204	-0,176	-0,153	-0,130	-0,111	-0,094	-0,084	-0,083	-0,089	-0,095	-0,099	-0,107	-0,114	-0,117	-0,114	-0,116	-0,124	-0,128	-0,128	-0,124	-0,125	-0,128	-0,131	-0,132	-0,133	-0,130	-0,128	-0,126	-0,125	-0,122	-0,120	-0,128	-0,146	-0,162	-0,155	-0,144	-0,132	-0,128	-0,134	-0,145	-0,144	-0,126	-0,103	-0,088	-0,087	-0,091	-0,094	-0,102	-0,111	-0,114	-0,114	-0,112	-0,110	-0,117	-0,122	-0,122	-0,121	-0,122	-0,116	-0,108	-0,103	-0,103	-0,107	-0,107	-0,099	-0,084	-0,065	-0,045	-0,031	-0,030	-0,041	-0,061	-0,079	-0,095	-0,108	-0,113	-0,111	-0,110	-0,117	-0,129	-0,134	-0,125	-0,113	-0,105	-0,097	-0,076	-0,057	-0,047	-0,053	-0,064	-0,067	-0,064	-0,057	-0,049	-0,039	-0,032	-0,027	-0,029	-0,037	-0,045	-0,054	-0,061	-0,062	-0,058	-0,058	-0,060	-0,056	-0,042	-0,031	-0,029	-0,029	-0,035	-0,039	-0,039	-0,040	-0,048	-0,061	-0,067	-0,071	-0,071	-0,064	-0,052	-0,045	-0,040	-0,039	-0,040	-0,045	-0,046	-0,039	-0,037	-0,040	-0,048	-0,056	-0,059	-0,053	-0,050	-0,050	-0,046	-0,037	-0,027	-0,028	-0,038	-0,045	-0,044	-0,044	-0,043	-0,043	-0,056	-0,067	-0,063	-0,056	-0,057	-0,058	-0,053	-0,045	-0,041	-0,045	-0,054	-0,061	-0,061	-0,063	-0,071	-0,078	-0,079	-0,070	-0,054	-0,040	-0,036	-0,033	-0,029	-0,024	-0,022	-0,031	-0,052	-0,074	-0,089	-0,093	-0,088	-0,082	-0,067	-0,057	-0,047	-0,037	-0,035	-0,038	-0,034	-0,026	-0,019	-0,014	-0,014	-0,021	-0,031	-0,041	-0,052	-0,060	-0,062	-0,058	-0,049	-0,038	-0,028	-0,023	-0,023	-0,022	-0,017	-0,009	-0,006	-0,005	-0,009	-0,006	-0,003	-0,001	0,001	0,004	0,007	0,008	0,008	0,008	0,006	-0,003	-0,012	-0,019	-0,018	-0,012	-0,003	0,001	0,001	0,002	0,003	0,004	-0,000	-0,012	-0,015	-0,012	-0,010	-0,011	-0,011	-0,009	-0,007	-0,003	0,002	-0,001	-0,004	-0,001	0,007	0,008	0,000	-0,002	0,005	0,014	0,014	0,010	0,004	0,001	-0,002	-0,006	-0,011	-0,010	-0,008	-0,010	-0,015	-0,019	-0,011	-0,006	-0,006	-0,011	-0,015	-0,009	-0,005	0,002	0,011	0,015	0,020	0,021	0,027	0,033	0,040	0,048	0,056	0,058	0,055	0,044	0,030	0,016	0,011	0,020	0,038	0,051	0,052	0,044	0,039	0,041	0,051	0,054	0,047	0,047	0,054	0,059	0,060	0,058	0,050	0,045	0,041	0,042	0,046	0,052	0,060	0,070	0,075	0,074	0,075	0,081	0,083	0,074	0,056	0,042	0,036	0,037	0,035	0,032	0,024	0,019	0,017	0,022	0,031	0,043	0,053	0,059	0,064	0,065	0,063	0,055	0,045	0,039	0,038	0,035	0,029	0,026	0,028	0,030	0,031	0,032	0,031	0,029	0,040	0,058	0,079	0,096	0,110	0,106	0,097	0,087	0,074	0,065	0,056	0,044	0,031	0,022	0,011	0,015	0,029	0,045	0,045	0,029	0,008	-0,006	-0,006	0,007	0,028	0,051	0,074	0,102	0,122	0,123	0,112	0,100	0,097	0,095	0,090	0,086	0,083	0,081	0,081	0,088	0,095	0,093	0,093	0,099	0,103	0,103	0,101	0,096	0,092	0,083	0,070	0,056	0,047	0,046	0,051	0,063	0,079	0,090	0,081	0,065	0,063	0,076	0,088	0,097	0,104	0,106	0,094	0,081	0,072	0,072	0,071	0,071	0,058	0,041	0,033	0,039	0,047	0,050	0,055	0,071	0,085	0,091	0,096	0,096	0,096	0,109	0,125	0,131	0,133	0,129	0,119	0,105	0,095	0,098	0,101	0,102	0,100	0,097	0,104	0,111	0,120	0,121	0,121	0,122	0,121	0,125	0,130	0,134	0,143	0,155	0,163	0,163	0,159	0,159	0,160	0,163	0,166	0,172	0,179	0,190	0,204	0,220	0,238	0,250	0,258	0,261	0,252	0,239	0,228	0,229	0,239	0,245	0,248	0,258	0,264	0,263	0,262	0,262	0,259	0,250	0,245	0,242	0,236	0,223	0,210	0,199	0,195	0,193	0,201	0,209	0,208	0,200	0,185	0,177	0,187	0,193	0,185	0,172	0,166	0,159	0,152	0,148	0,146	0,143	0,137	0,121	0,101	0,086	0,069	0,047	0,029	0,020	0,017	0,023	0,036	0,046	0,046	0,040	0,041	0,059	0,083	0,095	0,096	0,094	0,097	0,100	0,094	0,080	0,063	0,054	0,056	0,063	0,064	0,059	0,055	0,053	0,044	0,037	0,038	0,043	0,057	0,072	0,087	0,089	0,078	0,062	0,042	0,019	-0,003	-0,014	-0,013	-0,006	0,004	0,017	0,031	0,039	0,046	0,051	0,051	0,054	0,073	0,096	0,109	0,109	0,097	0,083	0,077	0,071	0,071	0,072	0,065	0,055	0,048	0,036	0,024	0,023	0,021	0,014	0,007	0,010	0,026	0,048	0,071	0,084	0,087	0,085	0,083	0,079	0,074	0,070	0,074	0,087	0,093	0,096	0,098	0,099	0,097	0,091	0,093	0,102	0,120	0,134	0,148	0,166	0,188	0,234	0,300	0,365	0,418	0,464	0,509	0,556	0,615	0,675	0,723	0,759	0,786	0,801	0,816	0,830	0,844	0,846	0,820	0,766	0,685	0,588	0,483	0,374	0,269	0,172	0,087	0,008	-0,052	-0,088	-0,113	-0,136	-0,149	-0,156	-0,160	-0,154	-0,131	-0,100	-0,058	-0,016	0,013	0,040	0,065	0,082	0,083	0,077	0,072	0,074	0,078	0,079	0,077	0,076	0,073	0,066	0,063	0,054	0,042	0,033	0,026	0,027	0,032	0,037	0,039	0,034	0,020	0,012	0,009	0,005	0,008	0,017	0,019	0,010	0,005	0,013	0,034	0,057	0,072	0,073	0,072	0,076	0,078	0,074	0,065	0,049	0,031	0,023	0,021	0,022	0,021	0,019	0,021	0,025	0,023	0,029	0,039	0,054	0,070	0,075	0,071	0,061	0,056	0,052	0,042	0,035	0,033	0,026	0,019	0,020	0,016	0,011	0,017	0,033	0,057	0,077	0,088	0,087	0,080	0,079	0,077	0,072	0,068	0,068	0,066	0,063	0,064	0,067	0,066	0,062	0,060	0,055	0,041	0,036	0,040	0,046	0,049	0,046	0,048	0,055	0,063	0,073	0,075	0,069	0,062	0,060	0,055	0,051	0,045	0,047	0,058	0,070	0,077	0,078	0,077	0,073	0,077	0,082	0,084	0,083	0,077	0,067	0,061	0,064	0,066	0,057	0,045	0,034	0,028	0,031	0,033	0,028	0,027	0,028	0,035	0,048	0,056	0,058	0,051	0,045	0,047	0,057	0,069	0,068	0,064	0,058	0,053	0,053	0,056	0,060	0,066	0,068	0,066	0,061	0,056	0,049	0,037	0,031	0,033	0,027	0,010	-0,001	-0,002	-0,001	-0,002	0,000	0,008	0,014	0,014	0,014	0,020	0,024	0,022	0,019	0,010	-0,000	-0,017	-0,023	-0,022	-0,014	0,003	0,022	0,036	0,041	0,047	0,051	0,047	0,041	0,030	0,017	0,003	-0,005	-0,013	-0,017	-0,014	-0,011	-0,004	0,005	0,012	0,015	0,021	0,028	0,033	0,034	0,027	0,020	0,011	-0,000	-0,004	0,002	0,014	0,021	0,019	0,020	0,014	0,007	0,002	-0,003	-0,013	-0,020	-0,018	-0,008	0,008	0,022	0,038	0,042	0,036	0,033	0,033	0,034	0,035	0,036	0,032	0,032	0,030	0,024	0,018	0,017	0,020	0,023	0,019	0,018	0,018	0,009	-0,011	-0,024	-0,024	-0,017	-0,008	0,002	0,004	-0,001	-0,007	-0,010	-0,010	-0,008	-0,006	-0,009	-0,022	-0,031	-0,025	-0,013	0,008	0,022	0,020	0,010	-0,006	-0,024	-0,030	-0,033	-0,038	-0,042	-0,042	-0,036	-0,031	-0,033	-0,028	-0,019	-0,009	0,001	0,012	0,017	0,017	0,015	0,015	0,016	0,021	0,021	0,019	0,011	-0,000	-0,010	-0,017	-0,024	-0,032	-0,037	-0,034	-0,025	-0,011	-0,005	-0,002	0,002	0,008	0,006	0,006	-0,005	-0,022	-0,033	-0,035	-0,033	-0,032	-0,026	-0,014	-0,001	0,009	0,017	0,017	0,013	0,016	0,016	0,009	0,007	0,010	0,012	0,012	0,009	-0,001	-0,011	-0,017	-0,029	-0,043	-0,051	-0,050	-0,031	-0,004	0,010	0,001	-0,015	-0,023	-0,024	-0,021	-0,023	-0,028	-0,033	-0,018	0,010	0,030	0,027	0,011	-0,014	-0,040	-0,044	-0,034	-0,025	-0,020	-0,016	-0,010	-0,013	-0,016	-0,011	-0,003	0,005	0,009	0,010	0,005	-0,010	-0,034	-0,064	-0,086	-0,096	-0,092	-0,083	-0,075	-0,073	-0,065	-0,049	-0,030	-0,015	-0,005	0,001	0,008	0,009	0,009	0,009	0,009	0,007	0,001	-0,003	-0,005	-0,004	-0,016	-0,036	-0,052	-0,060	-0,062	-0,063	-0,058	-0,057	-0,058	-0,055	-0,053	-0,053	-0,054	-0,054	-0,046	-0,037	-0,033	-0,029	-0,025	-0,028	-0,037	-0,045	-0,050	-0,046	-0,045	-0,048	-0,049	-0,044	-0,039	-0,040	-0,038	-0,038	-0,041	-0,037	-0,028	-0,019	-0,015	-0,015	-0,024	-0,043	-0,064	-0,069	-0,059	-0,043	-0,021	-0,010	-0,009	-0,011	-0,016	-0,012	-0,002	0,010	0,020	0,022	0,020	0,018	0,020	0,023	0,026	0,032	0,034	0,036	0,037	0,038	0,042	0,043	0,046	0,059	0,068	0,082	0,100	0,115	0,123	0,126	0,124	0,118	0,114	0,117	0,123	0,127	0,127	0,120	0,102	0,084	0,068	0,056	0,050	0,048	0,051	0,050	0,048	0,041	0,022	-0,003	-0,027	-0,045	-0,058	-0,069	-0,076	-0,074	-0,075	-0,078	-0,073	-0,069	-0,071	-0,083	-0,094	-0,096	-0,098	-0,094	-0,085	-0,079	-0,072	-0,074	-0,084	-0,094	-0,101	-0,104	-0,106	-0,111	-0,120	-0,130	-0,141	-0,154	-0,161	-0,162	-0,160	-0,162	-0,156	-0,146	-0,137	-0,127	-0,124	-0,124	-0,129	-0,137	-0,134	-0,116	-0,100	-0,101	-0,111	-0,116	-0,118	-0,124	-0,132	-0,140	-0,144	-0,149	-0,150	-0,151	-0,149	-0,151	-0,156	-0,160	-0,163	-0,147	-0,119	-0,108	-0,119	-0,139	-0,151	-0,157	-0,160	-0,162	-0,166	-0,175	-0,177	-0,173	-0,165	-0,158	-0,150	-0,146	-0,145	-0,144	-0,146	-0,150	-0,150	-0,143	-0,139	-0,141	-0,144	-0,145	-0,134	-0,121	-0,110	-0,114	-0,126	-0,143	-0,152	-0,150	-0,143	-0,128	-0,114	-0,107	-0,104	-0,106	-0,111	-0,111	-0,099	-0,083	-0,059	-0,029	0,000	0,028	0,061	0,103	0,161	0,220	0,265	0,305	0,350	0,403	0,460	0,506	0,537	0,559	0,576	0,586	0,596	0,614	0,631	0,630	0,594	0,528	0,436	0,329	0,218	0,108	0,005	-0,087	-0,167	-0,235	-0,285	-0,320	-0,345	-0,368	-0,390	-0,403	-0,385	-0,351	-0,316	-0,279	-0,242	-0,203	-0,172	-0,167	-0,171	-0,171	-0,156	-0,139	-0,131	-0,132	-0,137	-0,151	-0,173	-0,195	-0,207	-0,205	-0,196	-0,180	-0,171	-0,176	-0,191	-0,207	-0,219	-0,226	-0,235	-0,241	-0,239	-0,228	-0,210	-0,190	-0,174	-0,170	-0,170	-0,167	-0,163	-0,166	-0,173	-0,173	-0,179	-0,187	-0,193	-0,190	-0,186	-0,179	-0,166	-0,154	-0,154	-0,163	-0,174	-0,178	-0,174	-0,173	-0,175	-0,178	-0,183	-0,185	-0,181	-0,180	-0,184	-0,199	-0,212	-0,211	-0,200	-0,185	-0,172	-0,166	-0,169	-0,164	-0,161	-0,160	-0,153	-0,149	-0,147	-0,153	-0,160	-0,166	-0,172	-0,178	-0,184	-0,192	-0,198	-0,200	-0,201	-0,203	-0,198	-0,194	-0,191	-0,183	-0,180	-0,177	-0,176	-0,175	-0,172	-0,169	-0,173	-0,173	-0,167	-0,162	-0,159	-0,156	-0,147	-0,137	-0,136	-0,137	-0,139	-0,136	-0,138	-0,150	-0,163	-0,163	-0,151	-0,149	-0,158	-0,170	-0,172	-0,174	-0,182	-0,191	-0,194	-0,192	-0,197	-0,204	-0,200	-0,193	-0,185	-0,174	-0,154	-0,145	-0,150	-0,160	-0,166	-0,168	-0,167	-0,162	-0,160	-0,162	-0,169	-0,171	-0,171	-0,175	-0,174	-0,168	-0,168	-0,161	-0,150	-0,146	-0,146	-0,149	-0,154	-0,165	-0,177	-0,188	-0,198	-0,208	-0,215	-0,212	-0,203	-0,189	-0,181	-0,174	-0,169	-0,164	-0,159	-0,147	-0,138	-0,139	-0,146	-0,156	-0,161	-0,166	-0,169	-0,172	-0,181	-0,188	-0,195	-0,204	-0,212	-0,215	-0,212	-0,201	-0,187	-0,177	-0,173	-0,172	-0,172	-0,169	-0,171	-0,184	-0,194	-0,200	-0,198	-0,182	-0,166	-0,154	-0,144	-0,146	-0,155	-0,157	-0,155	-0,151	-0,149	-0,149	-0,153	-0,152	-0,149	-0,146	-0,146	-0,149	-0,154	-0,158	-0,149	-0,136	-0,133	-0,145	-0,162	-0,176	-0,188	-0,198	-0,209	-0,208	-0,204	-0,202	-0,188	-0,165	-0,137	-0,110	-0,098	-0,102	-0,106	-0,107	-0,118	-0,134	-0,136	-0,126	-0,126	-0,134	-0,142	-0,143	-0,150	-0,162	-0,173	-0,178	-0,182	-0,196	-0,215	-0,232	-0,244	-0,251	-0,246	-0,228	-0,198	-0,158	-0,121	-0,104	-0,103	-0,106	-0,105	-0,099	-0,097	-0,091	-0,087	-0,090	-0,099	-0,114	-0,136	-0,150	-0,154	-0,151	-0,141	-0,137	-0,137	-0,136	-0,132	-0,126	-0,132	-0,146	-0,168	-0,183	-0,186	-0,181	-0,170	-0,162	-0,152	-0,148	-0,149	-0,155	-0,154	-0,145	-0,134	-0,128	-0,129	-0,126	-0,120	-0,111	-0,112	-0,119	-0,126	-0,132	-0,143	-0,160	-0,179	-0,192	-0,195	-0,192	-0,172	-0,138	-0,112	-0,102	-0,097	-0,096	-0,092	-0,084	-0,077	-0,078	-0,095	-0,113	-0,125	-0,132	-0,143	-0,152	-0,154	-0,149	-0,140	-0,132	-0,127	-0,124	-0,117	-0,114	-0,103	-0,090	-0,080	-0,084	-0,100	-0,109	-0,109	-0,104	-0,101	-0,099	-0,106	-0,118	-0,132	-0,136	-0,131	-0,123	-0,112	-0,103	-0,097	-0,098	-0,106	-0,111	-0,105	-0,101	-0,104	-0,108	-0,118	-0,131	-0,138	-0,138	-0,134	-0,124	-0,118	-0,119	-0,124	-0,128	-0,132	-0,133	-0,125	-0,110	-0,100	-0,098	-0,098	-0,102	-0,112	-0,124	-0,131	-0,134	-0,136	-0,133	-0,126	-0,121	-0,117	-0,114	-0,114	-0,121	-0,124	-0,121	-0,118	-0,118	-0,121	-0,126	-0,133	-0,132	-0,133	-0,140	-0,143	-0,146	-0,145	-0,138	-0,131	-0,121	-0,108	-0,094	-0,078	-0,066	-0,057	-0,059	-0,068	-0,074	-0,070	-0,056	-0,045	-0,049	-0,064	-0,084	-0,097	-0,103	-0,104	-0,100	-0,099	-0,101	-0,108	-0,115	-0,122	-0,121	-0,112	-0,101	-0,091	-0,087	-0,085	-0,079	-0,076	-0,083	-0,090	-0,093	-0,096	-0,099	-0,102	-0,104	-0,103	-0,103	-0,097	-0,089	-0,086	-0,088	-0,089	-0,086	-0,080	-0,072	-0,058	-0,041	-0,028	-0,024	-0,029	-0,039	-0,047	-0,062	-0,082	-0,087	-0,081	-0,071	-0,062	-0,054	-0,036	-0,008	0,022	0,045	0,057	0,054	0,050	0,044	0,048	0,053	0,051	0,046	0,039	0,032	0,028	0,029	0,039	0,058	0,068	0,072	0,070	0,071	0,072	0,074	0,076	0,081	0,088	0,100	0,112	0,110	0,096	0,072	0,049	0,034	0,025	0,013	-0,003	-0,015	-0,019	-0,019	-0,018	-0,017	-0,027	-0,038	-0,050	-0,057	-0,055	-0,057	-0,062	-0,070	-0,080	-0,098	-0,117	-0,136	-0,149	-0,150	-0,143	-0,134	-0,124	-0,109	-0,102	-0,103	-0,111	-0,121	-0,119	-0,108	-0,102	-0,103	-0,100	-0,096	-0,095	-0,092	-0,096	-0,100	-0,105	-0,118	-0,132	-0,144	-0,156	-0,161	-0,160	-0,157	-0,158	-0,147	-0,130	-0,123	-0,126	-0,134	-0,137	-0,137	-0,135	-0,134	-0,128	-0,128	-0,139	-0,163	-0,181	-0,178	-0,167	-0,162	-0,164	-0,164	-0,160	-0,149	-0,126	-0,099	-0,078	-0,064	-0,060	-0,064	-0,075	-0,084	-0,087	-0,088	-0,085	-0,090	-0,103	-0,117	-0,122	-0,120	-0,121	-0,117	-0,097	-0,081	-0,078	-0,083	-0,092	-0,105	-0,112	-0,105	-0,092	-0,089	-0,101	-0,115	-0,115	-0,109	-0,105	-0,102	-0,097	-0,087	-0,072	-0,049	-0,020	0,003	0,025	0,051	0,080	0,116	0,162	0,210	0,265	0,322	0,375	0,426	0,474	0,516	0,552	0,587	0,615	0,642	0,668	0,685	0,696	0,702	0,702	0,681	0,634	0,559	0,458	0,344	0,230	0,131	0,039	-0,042	-0,112	-0,165	-0,207	-0,240	-0,264	-0,276	-0,286	-0,296	-0,298	-0,293	-0,272	-0,238	-0,193	-0,144	-0,100	-0,067	-0,047	-0,041	-0,049	-0,064	-0,075	-0,077	-0,079	-0,083	-0,087	-0,089	-0,093	-0,102	-0,106	-0,103	-0,100	-0,102	-0,106	-0,109	-0,106	-0,109	-0,116	-0,125	-0,134	-0,136	-0,133	-0,128	-0,125	-0,117	-0,110	-0,104	-0,095	-0,089	-0,092	-0,094	-0,092	-0,086	-0,086	-0,084	-0,074	-0,068	-0,079	-0,090	-0,095	-0,099	-0,095	-0,091	-0,090	-0,081	-0,077	-0,078	-0,086	-0,091	-0,086	-0,080	-0,077	-0,069	-0,057	-0,047	-0,041	-0,038	-0,036	-0,046	-0,062	-0,071	-0,081	-0,091	-0,098	-0,090	-0,078	-0,067	-0,056	-0,049	-0,048	-0,047	-0,046	-0,042	-0,038	-0,034	-0,032	-0,030	-0,031	-0,035	-0,044	-0,047	-0,051	-0,060	-0,068	-0,068	-0,064	-0,064	-0,067	-0,068	-0,066	-0,065	-0,058	-0,048	-0,042	-0,039	-0,037	-0,042	-0,044	-0,053	-0,065	-0,064	-0,059	-0,053	-0,048	-0,040	-0,034	-0,026	-0,016	-0,005	0,001	0,000	-0,008	-0,026	-0,038	-0,046	-0,048	-0,044	-0,040	-0,035	-0,032	-0,024	-0,010	0,001	-0,001	-0,006	-0,011	-0,013	-0,016	-0,019	-0,023	-0,026	-0,028	-0,032	-0,032	-0,037	-0,045	-0,054	-0,051	-0,044	-0,052	-0,068	-0,082	-0,090	-0,085	-0,075	-0,067	-0,065	-0,061	-0,052	-0,042	-0,031	-0,023	-0,024	-0,023	-0,016	-0,008	-0,007	-0,010	-0,014	-0,023	-0,032	-0,043	-0,045	-0,038	-0,033	-0,029	-0,027	-0,023	-0,021	-0,019	-0,028	-0,037	-0,038	-0,039	-0,041	-0,043	-0,048	-0,053	-0,056	-0,059	-0,056	-0,052	-0,053	-0,055	-0,067	-0,078	-0,075	-0,058	-0,041	-0,022	-0,010	-0,007	-0,012	-0,018	-0,016	-0,012	-0,014	-0,016	-0,014	-0,002	0,013	0,028	0,040	0,036	0,019	0,002	-0,008	-0,012	-0,013	-0,014	-0,014	-0,012	-0,009	-0,006	-0,003	-0,002	-0,002	-0,002	-0,011	-0,026	-0,036	-0,038	-0,040	-0,042	-0,035	-0,027	-0,021	-0,011	-0,003	-0,002	-0,002	-0,002	-0,003	-0,012	-0,025	-0,037	-0,040	-0,034	-0,029	-0,026	-0,029	-0,043	-0,050	-0,048	-0,043	-0,038	-0,038	-0,043	-0,046	-0,038	-0,023	-0,012	0,002	0,014	0,021	0,024	0,023	0,023	0,023	0,024	0,022	0,014	0,001	-0,011	-0,021	-0,026	-0,026	-0,029	-0,029	-0,017	-0,003	0,007	0,021	0,037	0,046	0,051	0,045	0,039	0,039	0,043	0,040	0,031	0,018	0,004	-0,009	-0,021	-0,020	-0,016	-0,017	-0,020	-0,022	-0,020	-0,018	-0,024	-0,031	-0,029	-0,019	-0,007	-0,006	-0,010	-0,014	-0,018	-0,022	-0,023	-0,017	-0,008	-0,001	0,003	0,012	0,016	0,017	0,023	0,029	0,029	0,025	0,019	0,011	0,004	-0,001	-0,004	-0,004	-0,004	-0,003	-0,005	-0,020	-0,019	-0,004	0,005	-0,003	-0,024	-0,030	-0,019	-0,001	0,017	0,036	0,057	0,068	0,065	0,053	0,041	0,019	-0,003	-0,016	-0,017	-0,018	-0,012	-0,005	-0,006	0,000	0,011	0,022	0,026	0,016	0,001	-0,005	0,008	0,014	0,013	0,007	-0,005	-0,007	0,007	0,013	0,009	0,005	0,004	0,004	0,004	0,009	0,011	0,011	0,012	0,013	0,016	0,019	0,021	0,016	0,008	-0,006	-0,018	-0,026	-0,029	-0,039	-0,051	-0,050	-0,029	-0,002	0,018	0,036	0,055	0,066	0,066	0,055	0,041	0,026	0,012	0,002	-0,006	-0,015	-0,024	-0,030	-0,033	-0,032	-0,029	-0,019	-0,005	0,005	0,011	0,012	0,004	-0,014	-0,028	-0,025	-0,005	0,018	0,046	0,060	0,065	0,061	0,048	0,031	0,019	0,015	0,014	0,015	0,015	0,010	0,004	0,009	0,019	0,028	0,031	0,027	0,025	0,031	0,044	0,049	0,038	0,020	0,008	-0,001	-0,002	-0,000	0,002	0,011	0,024	0,034	0,040	0,041	0,038	0,035	0,031	0,028	0,029	0,036	0,043	0,040	0,035	0,028	0,021	0,016	0,020	0,025	0,030	0,033	0,031	0,027	0,016	0,007	-0,002	-0,008	-0,006	0,008	0,032	0,045	0,048	0,045	0,052	0,055	0,062	0,070	0,076	0,079	0,082	0,087	0,094	0,105	0,112	0,118	0,124	0,127	0,126	0,120	0,107	0,089	0,078	0,083	0,100	0,125	0,151	0,165	0,170	0,169	0,163	0,150	0,137	0,129	0,120	0,123	0,140	0,167	0,199	0,229	0,250	0,257	0,253	0,244	0,236	0,228	0,212	0,192	0,171	0,155	0,141	0,131	0,124	0,120	0,116	0,110	0,112	0,108	0,099	0,099	0,099	0,096	0,092	0,071	0,052	0,044	0,040	0,027	0,015	0,004	-0,012	-0,024	-0,026	-0,016	-0,002	0,004	0,003	0,003	-0,002	-0,015	-0,025	-0,029	-0,024	-0,013	-0,009	-0,006	-0,002	0,004	0,013	0,016	0,007	0,001	0,004	0,014	0,026	0,028	0,026	0,023	0,023	0,027	0,028	0,025	0,024	0,021	0,013	0,004	-0,009	-0,027	-0,043	-0,047	-0,047	-0,045	-0,039	-0,032	-0,028	-0,028	-0,022	-0,011	-0,001	0,009	0,024	0,034	0,036	0,031	0,021	0,016	0,008	-0,005	-0,021	-0,039	-0,054	-0,050	-0,031	-0,019	-0,021	-0,024	-0,019	-0,008	0,002	0,012	0,023	0,031	0,037	0,037	0,034	0,034	0,030	0,020	0,007	0,002	0,013	0,022	0,023	0,012	0,006	0,011	0,021	0,030	0,038	0,045	0,053	0,065	0,082	0,102	0,124	0,151	0,187	0,228	0,284	0,347	0,412	0,469	0,518	0,570	0,623	0,670	0,705	0,725	0,744	0,767	0,780	0,788	0,794	0,788	0,769	0,727	0,664	0,577	0,473	0,360	0,249	0,154	0,070	-0,007	-0,077	-0,136	-0,178	-0,204	-0,215	-0,218	-0,207	-0,185	-0,153	-0,111	-0,063	-0,019	0,009	0,014	0,006	-0,001	-0,004	-0,000	0,002	-0,001	-0,003	0,002	0,009	0,006	-0,005	-0,014	-0,020	-0,024	-0,025	-0,028	-0,031	-0,030	-0,028	-0,027	-0,032	-0,038	-0,039	-0,038	-0,034	-0,026	-0,010	0,001	0,004	0,003	0,005	0,010	0,011	0,004	-0,000	0,000	0,000	-0,005	-0,009	-0,008	-0,001	-0,003	-0,009	-0,018	-0,021	-0,016	-0,013	-0,016	-0,017	-0,019	-0,020	-0,028	-0,035	-0,032	-0,020	-0,010	0,004	0,017	0,020	0,019	0,017	0,018	0,023	0,029	0,036	0,043	0,046	0,045	0,039	0,033	0,023	0,020	0,026	0,038	0,044	0,041	0,030	0,015	-0,005	-0,026	-0,043	-0,043	-0,030	-0,018	-0,005	0,008	0,020	0,033	0,041	0,050	0,062	0,074	0,076	0,068	0,059	0,053	0,056	0,059	0,056	0,048	0,046	0,042	0,030	0,025	0,029	0,039	0,044	0,042	0,031	0,019	0,010	0,009	0,017	0,031	0,051	0,064	0,075	0,088	0,088	0,071	0,053	0,038	0,031	0,023	0,016	0,016	0,015	0,014	0,021	0,034	0,043	0,046	0,043	0,041	0,037	0,041	0,051	0,054	0,055	0,045	0,029	0,014	-0,000	-0,008	-0,012	-0,008	0,006	0,022	0,025	0,020	0,013	0,011	0,021	0,036	0,048	0,052	0,051	0,041	0,027	0,023	0,024	0,018	0,010	0,011	0,014	0,014	0,007	-0,006	-0,022	-0,025	-0,019	-0,017	-0,005	0,009	0,023	0,035	0,035	0,023	0,006	-0,009	-0,013	-0,008	0,007	0,025	0,039	0,045	0,042	0,037	0,031	0,024	0,019	0,018	0,021	0,029	0,042	0,053	0,061	0,060	0,055	0,050	0,049	0,046	0,033	0,017	0,013	0,029	0,044	0,047	0,044	0,038	0,033	0,035	0,050	0,069	0,080	0,077	0,067	0,059	0,050	0,047	0,041	0,030	0,020	0,021	0,020	0,013	0,008	0,008	0,013	0,011	0,007	0,024	0,049	0,069	0,087	0,092	0,095	0,098	0,098	0,090	0,074	0,058	0,044	0,029	0,018	0,017	0,024	0,029	0,028	0,035	0,041	0,045	0,046	0,043	0,043	0,042	0,039	0,033	0,030	0,030	0,031	0,028	0,023	0,019	0,012	0,015	0,029	0,043	0,054	0,052	0,038	0,022	0,006	0,005	0,026	0,058	0,080	0,089	0,087	0,083	0,074	0,064	0,065	0,069	0,068	0,066	0,065	0,065	0,067	0,073	0,074	0,072	0,073	0,080	0,092	0,088	0,075	0,062	0,050	0,045	0,045	0,046	0,039	0,026	0,020	0,027	0,039	0,050	0,059	0,058	0,056	0,069	0,090	0,103	0,104	0,097	0,092	0,086	0,084	0,084	0,076	0,071	0,067	0,073	0,076	0,074	0,069	0,064	0,065	0,065	0,056	0,042	0,029	0,022	0,015	0,015	0,015	0,023	0,051	0,081	0,100	0,108	0,099	0,089	0,087	0,085	0,082	0,083	0,086	0,087	0,087	0,091	0,095	0,093	0,087	0,078	0,071	0,063	0,049	0,036	0,031	0,033	0,031	0,027	0,035	0,054	0,074	0,090	0,095	0,102	0,109	0,113	0,117	0,109	0,103	0,105	0,106	0,099	0,083	0,065	0,052	0,044	0,031	0,024	0,021	0,029	0,043	0,059	0,080	0,091	0,083	0,064	0,046	0,042	0,045	0,062	0,080	0,095	0,104	0,103	0,099	0,087	0,073	0,062	0,052	0,052	0,059	0,063	0,063	0,065	0,068	0,071	0,083	0,094	0,091	0,087	0,087	0,089	0,075	0,055	0,043	0,040	0,044	0,053	0,060	0,066	0,074	0,076	0,072	0,069	0,067	0,068	0,078	0,086	0,085	0,085	0,085	0,076	0,067	0,065	0,063	0,062	0,060	0,064	0,064	0,052	0,035	0,031	0,045	0,075	0,098	0,106	0,111	0,112	0,109	0,108	0,109	0,109	0,109	0,107	0,098	0,086	0,076	0,071	0,060	0,042	0,027	0,034	0,061	0,082	0,088	0,093	0,102	0,114	0,116	0,102	0,077	0,052	0,030	0,013	0,005	0,004	0,007	0,012	0,024	0,036	0,055	0,079	0,099	0,113	0,120	0,123	0,125	0,123	0,115	0,111	0,103	0,092	0,087	0,087	0,084	0,080	0,090	0,103	0,110	0,117	0,123	0,124	0,120	0,118	0,118	0,118	0,122	0,136	0,155	0,168	0,174	0,174	0,173	0,178	0,186	0,188	0,183	0,179	0,182	0,182	0,178	0,178	0,177	0,178	0,183	0,186	0,195	0,214	0,238	0,256	0,256	0,242	0,226	0,215	0,209	0,203	0,200	0,199	0,195	0,191	0,185	0,189	0,199	0,209	0,216	0,214	0,195	0,179	0,173	0,168	0,156	0,133	0,109	0,087	0,076	0,072	0,075	0,076	0,070	0,060	0,056	0,051	0,048	0,041	0,034	0,032	0,034	0,038	0,047	0,067	0,087	0,094	0,094	0,087	0,078	0,071	0,058	0,042	0,032	0,026	0,017	0,014	0,022	0,037	0,049	0,046	0,034	0,036	0,047	0,056	0,057	0,042	0,029	0,019	0,012	0,005	0,001	0,002	0,007	0,016	0,026	0,037	0,048	0,059	0,065	0,069	0,076	0,077	0,069	0,052	0,037	0,023	0,014	0,012	0,015	0,017	0,020	0,024	0,021	0,022	0,028	0,031	0,035	0,038	0,036	0,027	0,018	0,013	0,013	0,019	0,025	0,029	0,034	0,036	0,039	0,038	0,038	0,038	0,029	0,027	0,024	0,032	0,048	0,068	0,088	0,099	0,102	0,096	0,089	0,075	0,062	0,058	0,069	0,095	0,123	0,155	0,188	0,221	0,255	0,296	0,336	0,387	0,457	0,524	0,578	0,621	0,664	0,704	0,730	0,748	0,768	0,789	0,811	0,829	0,838	0,810	0,744	0,656	0,558	0,456	0,352	0,255	0,167	0,087	0,016	-0,041	-0,082	-0,109	-0,130	-0,142	-0,145	-0,137	-0,120	-0,101	-0,078	-0,055	-0,030	-0,003	0,018	0,036	0,046	0,050	0,054	0,063	0,067	0,062	0,051	0,039	0,028	0,012	-0,002	-0,007	-0,002	0,011	0,021	0,019	0,014	0,011	0,012	0,018	0,021	0,022	0,019	0,009	-0,005	-0,015	-0,014	-0,007	0,010	0,029	0,039	0,039	0,037	0,036	0,034	0,029	0,025	0,025	0,033	0,036	0,031	0,030	0,039	0,052	0,060	0,059	0,053	0,047	0,045	0,046	0,041	0,029	0,018	0,012	0,005	-0,003	-0,005	0,002	0,016	0,037	0,046	0,042	0,033	0,029	0,035	0,044	0,052	0,060	0,069	0,075	0,079	0,078	0,074	0,064	0,051	0,038	0,021	0,007	-0,001	-0,005	-0,010	-0,016	-0,017	-0,001	0,021	0,047	0,073	0,083	0,085	0,088	0,103	0,116	0,123	0,127	0,123	0,113	0,101	0,087	0,078	0,075	0,078	0,080	0,074	0,067	0,069	0,069	0,070	0,072	0,072	0,073	0,077	0,073	0,064	0,057	0,052	0,045	0,044	0,054	0,061	0,067	0,073	0,075	0,080	0,086	0,087	0,083	0,082	0,083	0,087	0,091	0,098	0,099	0,093	0,083	0,071	0,062	0,053	0,047	0,043	0,042	0,048	0,052	0,058	0,060	0,063	0,069	0,076	0,075	0,066	0,055	0,045	0,042	0,040	0,043	0,047	0,047	0,043	0,042	0,044	0,045	0,048	0,047	0,047	0,053	0,060	0,063	0,068	0,070	0,073	0,076	0,072	0,057	0,039	0,027	0,019	0,021	0,022	0,019	0,016	0,028	0,047	0,063	0,071	0,069	0,064	0,058	0,062	0,065	0,061	0,062	0,065	0,069	0,068	0,064	0,064	0,067	0,081	0,088	0,084	0,078	0,071	0,066	0,065	0,071	0,086	0,104	0,117	0,117	0,109	0,101	0,094	0,093	0,084	0,073	0,074	0,080	0,084	0,090	0,106	0,111	0,109	0,110	0,111	0,108	0,104	0,102	0,102	0,098	0,092	0,082	0,073	0,069	0,073	0,076	0,071	0,060	0,050	0,046	0,048	0,052	0,056	0,059	0,063	0,063	0,059	0,059	0,061	0,065	0,070	0,072	0,077	0,091	0,102	0,100	0,092	0,084	0,073	0,062	0,052	0,045	0,053	0,064	0,071	0,074	0,078	0,089	0,102	0,117	0,135	0,138	0,121	0,094	0,065	0,036	0,016	0,007	0,004	0,011	0,015	0,017	0,020	0,021	0,038	0,067	0,087	0,102	0,117	0,125	0,120	0,111	0,099	0,087	0,078	0,084	0,091	0,090	0,095	0,107	0,119	0,122	0,113	0,103	0,104	0,114	0,118	0,109	0,092	0,078	0,070	0,068	0,070	0,071	0,065	0,060	0,060	0,066	0,072	0,075	0,078	0,088	0,097	0,107	0,127	0,140	0,141	0,135	0,128	0,119	0,112	0,105	0,096	0,079	0,061	0,052	0,049	0,051	0,055	0,063	0,073	0,081	0,078	0,078	0,077	0,077	0,084	0,097	0,108	0,113	0,114	0,113	0,111	0,106	0,095	0,079	0,062	0,048	0,053	0,064	0,072	0,077	0,080	0,077	0,074	0,075	0,069	0,058	0,062	0,076	0,085	0,084	0,088	0,091	0,092	0,089	0,076	0,063	0,069	0,075	0,080	0,090	0,099	0,110	0,120	0,120	0,110	0,095	0,077	0,074	0,084	0,098	0,119	0,136	0,144	0,137	0,122	0,108	0,097	0,090	0,081	0,070	0,061	0,060	0,065	0,068	0,077	0,082	0,086	0,091	0,100	0,113	0,122	0,119	0,100	0,079	0,064	0,059	0,060	0,067	0,076	0,082	0,086	0,094	0,103	0,107	0,107	0,107	0,108	0,108	0,107	0,096	0,080	0,064	0,048	0,042	0,045	0,051	0,054	0,057	0,058	0,053	0,047	0,049	0,058	0,073	0,076	0,074	0,080	0,093	0,107	0,120	0,128	0,129	0,132	0,133	0,132	0,127	0,127	0,132	0,130	0,135	0,145	0,148	0,154	0,167	0,176	0,177	0,169	0,158	0,160	0,170	0,177	0,181	0,178	0,169	0,165	0,173	0,190	0,205	0,211	0,217	0,233	0,245	0,246	0,245	0,246	0,247	0,252	0,261	0,267	0,271	0,274	0,271	0,267	0,264	0,259	0,253	0,239	0,231	0,225	0,228	0,229	0,224	0,209	0,192	0,169	0,143	0,125	0,113	0,109	0,112	0,112	0,105	0,096	0,093	0,086	0,071	0,052	0,040	0,035	0,038	0,038	0,036	0,036	0,043	0,049	0,046	0,041	0,042	0,047	0,051	0,044	0,024	0,009	0,003	0,005	0,015	0,040	0,059	0,064	0,061	0,051	0,038	0,033	0,039	0,042	0,040	0,039	0,036	0,031	0,031	0,027	0,014	-0,003	-0,007	0,006	0,021	0,026	0,022	0,014	0,007	0,005	0,004	0,000	-0,001	0,005	0,022	0,040	0,044	0,040	0,037	0,031	0,027	0,021	0,010	0,003	-0,004	-0,014	-0,008	0,006	0,016	0,021	0,027	0,032	0,043	0,056	0,071	0,078	0,074	0,065	0,062	0,055	0,049	0,045	0,039	0,023	0,007	-0,002	-0,005	-0,008	-0,015	-0,016	-0,010	-0,004	0,002	0,017	0,037	0,056	0,068	0,079	0,087	0,091	0,089	0,089	0,105	0,139	0,183	0,230	0,274	0,323	0,384	0,446	0,500	0,555	0,614	0,677	0,731	0,773	0,795	0,810	0,823	0,829	0,834	0,835	0,825	0,796	0,742	0,665	0,572	0,462	0,353	0,259	0,186	0,127	0,063	-0,004	-0,057	-0,091	-0,111	-0,127	-0,143	-0,156	-0,148	-0,127	-0,109	-0,086	-0,054	-0,028	-0,008	0,009	0,017	0,026	0,030	0,035	0,043	0,045	0,042	0,037	0,031	0,017	0,005	0,005	0,012	0,018	0,019	0,017	0,015	0,010	-0,001	-0,018	-0,030	-0,039	-0,047	-0,050	-0,053	-0,056	-0,050	-0,029	-0,005	0,011	0,015	0,017	0,023	0,020	0,008	-0,010	-0,022	-0,028	-0,027	-0,024	-0,027	-0,028	-0,031	-0,031	-0,030	-0,020	0,001	0,023	0,040	0,052	0,052	0,046	0,039	0,030	0,017	-0,000	-0,012	-0,020	-0,021	-0,014	0,006	0,018	0,022	0,028	0,030	0,039	0,057	0,070	0,073	0,075	0,069	0,054	0,045	0,043	0,041	0,031	0,027	0,025	0,025	0,024	0,026	0,028	0,029	0,024	0,016	0,017	0,028	0,039	0,045	0,043	0,034	0,031	0,035	0,045	0,045	0,043	0,046	0,049	0,045	0,036	0,027	0,030	0,041	0,054	0,067	0,075	0,070	0,062	0,056	0,051	0,049	0,049	0,052	0,054	0,046	0,033	0,025	0,023	0,021	0,026	0,028	0,032	0,034	0,039	0,043	0,054	0,074	0,092	0,092	0,084	0,078	0,070	0,064	0,054	0,046	0,047	0,052	0,054	0,048	0,039	0,028	0,021	0,022	0,025	0,031	0,034	0,032	0,037	0,046	0,052	0,058	0,058	0,047	0,036	0,026	0,015	-0,000	-0,012	-0,018	-0,023	-0,021	-0,004	0,015	0,021	0,020	0,017	0,012	0,007	-0,002	-0,001	0,012	0,020	0,021	0,013	0,006	0,003	0,006	0,010	0,018	0,023	0,019	0,014	0,009	0,004	-0,002	-0,006	-0,006	-0,008	-0,003	0,008	0,022	0,028	0,015	0,004	0,002	0,004	0,002	-0,000	-0,002	0,001	0,008	0,020	0,027	0,030	0,043	0,062	0,076	0,088	0,089	0,078	0,064	0,057	0,059	0,061	0,054	0,046	0,039	0,036	0,037	0,040	0,041	0,043	0,047	0,049	0,051	0,051	0,054	0,060	0,059	0,056	0,056	0,059	0,055	0,044	0,032	0,017	-0,001	-0,010	-0,013	-0,018	-0,013	-0,002	0,009	0,028	0,045	0,048	0,043	0,036	0,036	0,043	0,047	0,044	0,028	0,013	0,004	-0,003	-0,012	-0,020	-0,022	-0,014	0,004	0,022	0,028	0,036	0,045	0,048	0,044	0,035	0,021	0,006	-0,007	-0,014	-0,016	-0,016	-0,021	-0,025	-0,022	-0,008	0,011	0,027	0,040	0,048	0,051	0,061	0,068	0,069	0,064	0,053	0,039	0,025	0,022	0,026	0,031	0,030	0,027	0,022	0,012	0,006	0,009	0,018	0,030	0,038	0,039	0,029	0,019	0,014	0,020	0,038	0,056	0,069	0,068	0,059	0,041	0,025	0,021	0,031	0,040	0,038	0,029	0,021	0,018	0,017	0,010	0,010	0,023	0,043	0,057	0,063	0,061	0,059	0,063	0,067	0,067	0,059	0,038	0,011	-0,003	-0,008	-0,007	0,002	0,010	0,020	0,031	0,047	0,063	0,070	0,065	0,049	0,031	0,015	0,006	-0,004	-0,019	-0,018	0,002	0,013	0,013	0,014	0,024	0,042	0,059	0,060	0,049	0,045	0,046	0,046	0,043	0,042	0,043	0,035	0,029	0,029	0,028	0,026	0,023	0,017	0,004	-0,009	-0,014	-0,012	-0,004	0,007	0,013	0,021	0,031	0,040	0,043	0,045	0,048	0,047	0,038	0,029	0,025	0,022	0,014	0,002	-0,008	-0,016	-0,021	-0,022	-0,019	-0,012	-0,002	0,008	0,018	0,023	0,023	0,023	0,022	0,015	0,008	0,001	-0,003	-0,004	-0,000	0,001	0,006	0,014	0,017	0,019	0,015	0,003	-0,014	-0,023	-0,012	0,008	0,028	0,034	0,031	0,030	0,029	0,031	0,033	0,031	0,025	0,013	-0,005	-0,015	-0,011	0,006	0,017	0,023	0,023	0,025	0,013	-0,008	-0,013	-0,004	0,003	0,008	0,007	0,003	0,004	0,005	0,011	0,014	0,010	0,006	0,002	-0,005	-0,010	-0,011	-0,005	0,006	0,017	0,019	0,018	0,019	0,026	0,041	0,060	0,070	0,076	0,082	0,081	0,065	0,039	0,021	0,016	0,024	0,027	0,027	0,034	0,049	0,061	0,071	0,076	0,078	0,083	0,096	0,114	0,132	0,149	0,153	0,147	0,130	0,113	0,096	0,097	0,110	0,119	0,131	0,154	0,170	0,170	0,159	0,155	0,162	0,175	0,178	0,173	0,167	0,168	0,168	0,163	0,155	0,148	0,137	0,129	0,115	0,096	0,080	0,066	0,059	0,060	0,063	0,052	0,032	0,022	0,017	0,011	-0,004	-0,014	-0,012	-0,012	-0,012	-0,011	-0,011	-0,012	-0,012	-0,018	-0,034	-0,050	-0,059	-0,053	-0,040	-0,026	-0,016	-0,012	-0,016	-0,020	-0,029	-0,048	-0,073	-0,092	-0,098	-0,089	-0,081	-0,073	-0,061	-0,051	-0,046	-0,048	-0,056	-0,065	-0,072	-0,086	-0,094	-0,091	-0,091	-0,082	-0,067	-0,054	-0,040	-0,035	-0,039	-0,046	-0,056	-0,070	-0,080	-0,094	-0,102	-0,102	-0,102	-0,105	-0,109	-0,110	-0,107	-0,098	-0,079	-0,054	-0,025	0,000	0,010	0,001	-0,018	-0,036	-0,047	-0,048	-0,043	-0,043	-0,048	-0,057	-0,062	-0,065	-0,065	-0,063	-0,065	-0,071	-0,077	-0,079	-0,074	-0,069	-0,076	-0,085	-0,083	-0,074	-0,068	-0,064	-0,062	-0,056	-0,043	-0,020	0,001	-0,002	-0,012	-0,012	0,002	0,030	0,062	0,092	0,123	0,155	0,193	0,238	0,291	0,347	0,400	0,452	0,508	0,568	0,628	0,674	0,694	0,693	0,686	0,692	0,695	0,698	0,706	0,699	0,657	0,583	0,490	0,388	0,279	0,169	0,067	-0,020	-0,078	-0,127	-0,170	-0,202	-0,225	-0,243	-0,259	-0,270	-0,275	-0,272	-0,258	-0,235	-0,195	-0,142	-0,098	-0,075	-0,060	-0,054	-0,055	-0,064	-0,078	-0,095	-0,108	-0,112	-0,107	-0,096	-0,091	-0,089	-0,096	-0,101	-0,094	-0,082	-0,074	-0,078	-0,087	-0,100	-0,124	-0,140	-0,140	-0,132	-0,121	-0,114	-0,107	-0,104	-0,104	-0,101	-0,094	-0,087	-0,081	-0,073	-0,070	-0,073	-0,072	-0,074	-0,084	-0,099	-0,114	-0,118	-0,116	-0,111	-0,105	-0,099	-0,086	-0,076	-0,070	-0,068	-0,068	-0,068	-0,069	-0,063	-0,057	-0,064	-0,075	-0,079	-0,081	-0,082	-0,077	-0,070	-0,064	-0,058	-0,059	-0,064	-0,069	-0,069	-0,064	-0,063	-0,065	-0,063	-0,051	-0,037	-0,030	-0,027	-0,026	-0,037	-0,044	-0,054	-0,070	-0,083	-0,088	-0,079	-0,062	-0,047	-0,041	-0,039	-0,032	-0,030	-0,035	-0,042	-0,043	-0,049	-0,050	-0,043	-0,037	-0,034	-0,036	-0,039	-0,046	-0,056	-0,061	-0,060	-0,049	-0,043	-0,037	-0,033	-0,037	-0,048	-0,057	-0,062	-0,057	-0,050	-0,044	-0,038	-0,036	-0,042	-0,052	-0,057	-0,052	-0,041	-0,027	-0,019	-0,013	-0,009	-0,015	-0,022	-0,031	-0,037	-0,033	-0,028	-0,021	-0,023	-0,032	-0,046	-0,057	-0,063	-0,070	-0,083	-0,090	-0,095	-0,101	-0,100	-0,092	-0,075	-0,053	-0,025	-0,009	-0,008	-0,012	-0,011	-0,003	-0,000	-0,001	-0,010	-0,022	-0,034	-0,055	-0,075	-0,083	-0,078	-0,072	-0,071	-0,071	-0,070	-0,075	-0,077	-0,072	-0,067	-0,057	-0,052	-0,052	-0,056	-0,063	-0,067	-0,068	-0,063	-0,060	-0,069	-0,080	-0,085	-0,083	-0,070	-0,055	-0,046	-0,044	-0,050	-0,062	-0,075	-0,080	-0,075	-0,065	-0,057	-0,055	-0,058	-0,062	-0,062	-0,063	-0,063	-0,058	-0,050	-0,043	-0,048	-0,055	-0,063	-0,068	-0,062	-0,048	-0,032	-0,023	-0,017	-0,008	-0,003	-0,002	-0,008	-0,009	-0,007	-0,011	-0,025	-0,049	-0,077	-0,105	-0,120	-0,114	-0,091	-0,071	-0,058	-0,034	-0,012	0,002	0,003	-0,006	-0,018	-0,024	-0,036	-0,052	-0,068	-0,076	-0,075	-0,072	-0,060	-0,046	-0,029	-0,014	-0,008	-0,008	-0,012	-0,021	-0,037	-0,053	-0,062	-0,055	-0,043	-0,035	-0,031	-0,034	-0,042	-0,048	-0,048	-0,041	-0,040	-0,053	-0,057	-0,056	-0,049	-0,042	-0,041	-0,045	-0,049	-0,053	-0,056	-0,054	-0,047	-0,037	-0,029	-0,027	-0,033	-0,048	-0,053	-0,050	-0,051	-0,057	-0,059	-0,058	-0,049	-0,038	-0,032	-0,029	-0,028	-0,028	-0,029	-0,029	-0,031	-0,028	-0,027	-0,032	-0,035	-0,040	-0,043	-0,045	-0,052	-0,057	-0,057	-0,055	-0,045	-0,038	-0,035	-0,034	-0,029	-0,027	-0,029	-0,024	-0,016	-0,011	-0,012	-0,018	-0,022	-0,030	-0,033	-0,039	-0,056	-0,064	-0,067	-0,069	-0,067	-0,059	-0,054	-0,052	-0,047	-0,049	-0,057	-0,068	-0,073	-0,075	-0,067	-0,056	-0,038	-0,024	-0,021	-0,027	-0,042	-0,059	-0,076	-0,078	-0,064	-0,048	-0,035	-0,034	-0,041	-0,039	-0,044	-0,054	-0,055	-0,047	-0,042	-0,041	-0,037	-0,044	-0,050	-0,052	-0,052	-0,052	-0,048	-0,047	-0,052	-0,056	-0,045	-0,033	-0,027	-0,025	-0,019	-0,009	-0,005	-0,005	-0,012	-0,020	-0,024	-0,024	-0,021	-0,018	-0,024	-0,039	-0,052	-0,059	-0,061	-0,058	-0,055	-0,047	-0,039	-0,035	-0,035	-0,039	-0,042	-0,045	-0,050	-0,052	-0,059	-0,067	-0,073	-0,073	-0,070	-0,068	-0,060	-0,052	-0,051	-0,054	-0,053	-0,059	-0,070	-0,076	-0,079	-0,080	-0,079	-0,071	-0,059	-0,049	-0,045	-0,050	-0,066	-0,084	-0,097	-0,108	-0,098	-0,075	-0,050	-0,034	-0,027	-0,033	-0,037	-0,038	-0,043	-0,055	-0,071	-0,081	-0,087	-0,082	-0,072	-0,061	-0,047	-0,021	0,012	0,035	0,039	0,030	0,023	0,009	-0,010	-0,018	-0,019	-0,014	-0,014	-0,018	-0,030	-0,031	-0,021	-0,010	-0,010	-0,016	-0,020	-0,030	-0,045	-0,061	-0,064	-0,056	-0,045	-0,041	-0,040	-0,037	-0,033	-0,030	-0,021	-0,008	0,001	0,005	0,009	0,016	0,026	0,037	0,037	0,029	0,018	0,005	-0,002	-0,003	-0,005	-0,004	0,005	0,020	0,028	0,024	0,011	0,002	-0,002	-0,002	0,006	0,023	0,037	0,049	0,053	0,054	0,057	0,064	0,071	0,071	0,072	0,078	0,085	0,089	0,094	0,104	0,114	0,121	0,132	0,141	0,140	0,134	0,124	0,114	0,101	0,091	0,098	0,110	0,111	0,109	0,098	0,084	0,073	0,062	0,043	0,028	0,019	0,010	0,010	0,029	0,035	0,027	0,013	-0,007	-0,034	-0,059	-0,083	-0,099	-0,104	-0,102	-0,094	-0,082	-0,076	-0,065	-0,047	-0,034	-0,036	-0,045	-0,058	-0,064	-0,066	-0,074	-0,083	-0,085	-0,085	-0,089	-0,099	-0,108	-0,113	-0,114	-0,117	-0,116	-0,112	-0,115	-0,124	-0,127	-0,114	-0,097	-0,091	-0,092	-0,094	-0,107	-0,119	-0,116	-0,106	-0,101	-0,111	-0,118	-0,121	-0,122	-0,114	-0,103	-0,090	-0,079	-0,073	-0,074	-0,083	-0,089	-0,096	-0,101	-0,104	-0,105	-0,108	-0,107	-0,103	-0,099	-0,099	-0,096	-0,084	-0,063	-0,054	-0,068	-0,093	-0,113	-0,116	-0,104	-0,088	-0,078	-0,080	-0,085	-0,088	-0,089	-0,088	-0,087	-0,084	-0,080	-0,079	-0,083	-0,084	-0,082	-0,079	-0,074	-0,069	-0,059	-0,049	-0,041	-0,041	-0,044	-0,045	-0,035	-0,017	0,008	0,038	0,066	0,093	0,126	0,170	0,222	0,280	0,343	0,409	0,463	0,508	0,548	0,590	0,625	0,651	0,673	0,686	0,693	0,694	0,687	0,677	0,637	0,569	0,483	0,391	0,294	0,192	0,085	-0,011	-0,097	-0,174	-0,234	-0,279	-0,308	-0,322	-0,309	-0,286	-0,258	-0,224	-0,195	-0,175	-0,151	-0,112	-0,081	-0,069	-0,071	-0,078	-0,086	-0,087	-0,088	-0,087	-0,085	-0,089	-0,098	-0,109	-0,103	-0,092	-0,088	-0,089	-0,092	-0,104	-0,118	-0,124	-0,125	-0,127	-0,136	-0,141	-0,139	-0,133	-0,135	-0,142	-0,138	-0,129	-0,125	-0,124	-0,120	-0,118	-0,113	-0,105	-0,101	-0,100	-0,106	-0,115	-0,125	-0,127	-0,124	-0,119	-0,115	-0,115	-0,112	-0,106	-0,094	-0,081	-0,069	-0,063	-0,056	-0,052	-0,058	-0,072	-0,085	-0,085	-0,090	-0,102	-0,114	-0,121	-0,125	-0,126	-0,125	-0,117	-0,103	-0,094	-0,088	-0,084	-0,077	-0,065	-0,046	-0,025	-0,016	-0,029	-0,047	-0,058	-0,064	-0,074	-0,080	-0,082	-0,083	-0,085	-0,089	-0,093	-0,098	-0,110	-0,117	-0,121	-0,117	-0,105	-0,094	-0,084	-0,069	-0,065	-0,080	-0,076	-0,068	-0,060	-0,053	-0,056	-0,066	-0,072	-0,066	-0,055	-0,045	-0,042	-0,042	-0,041	-0,037	-0,039	-0,040	-0,040	-0,044	-0,050	-0,064	-0,071	-0,077	-0,082	-0,078	-0,063	-0,045	-0,033	-0,027	-0,026	-0,034	-0,047	-0,049	-0,044	-0,041	-0,038	-0,033	-0,031	-0,033	-0,038	-0,045	-0,047	-0,052	-0,063	-0,065	-0,062	-0,061	-0,055	-0,052	-0,054	-0,057	-0,056	-0,059	-0,070	-0,080	-0,085	-0,079	-0,077	-0,079	-0,077	-0,076	-0,077	-0,077	-0,079	-0,085	-0,094	-0,104	-0,114	-0,125	-0,131	-0,121	-0,101	-0,084	-0,073	-0,066	-0,064	-0,066	-0,071	-0,080	-0,084	-0,091	-0,096	-0,096	-0,098	-0,100	-0,102	-0,105	-0,101	-0,090	-0,083	-0,088	-0,092	-0,089	-0,086	-0,083	-0,077	-0,071	-0,058	-0,037	-0,021	-0,014	-0,019	-0,026	-0,038	-0,047	-0,051	-0,051	-0,059	-0,070	-0,071	-0,060	-0,049	-0,047	-0,045	-0,038	-0,028	-0,015	-0,013	-0,027	-0,039	-0,045	-0,050	-0,044	-0,039	-0,047	-0,057	-0,060	-0,051	-0,042	-0,040	-0,041	-0,039	-0,033	-0,030	-0,028	-0,027	-0,033	-0,043	-0,050	-0,045	-0,043	-0,050	-0,053	-0,059	-0,065	-0,068	-0,071	-0,076	-0,078	-0,072	-0,067	-0,058	-0,048	-0,046	-0,051	-0,059	-0,059	-0,056	-0,047	-0,041	-0,054	-0,077	-0,089	-0,083	-0,064	-0,051	-0,050	-0,061	-0,073	-0,079	-0,081	-0,080	-0,075	-0,072	-0,068	-0,062	-0,062	-0,061	-0,057	-0,061	-0,066	-0,063	-0,057	-0,051	-0,045	-0,037	-0,023	-0,014	-0,017	-0,020	-0,017	-0,014	-0,013	-0,014	-0,015	-0,010	-0,005	-0,008	-0,015	-0,023	-0,031	-0,042	-0,062	-0,077	-0,085	-0,092	-0,099	-0,101	-0,097	-0,096	-0,094	-0,083	-0,065	-0,043	-0,029	-0,021	-0,013	-0,003	-0,001	-0,015	-0,033	-0,040	-0,039	-0,038	-0,040	-0,039	-0,035	-0,031	-0,032	-0,037	-0,040	-0,042	-0,050	-0,055	-0,055	-0,055	-0,056	-0,060	-0,059	-0,059	-0,058	-0,060	-0,069	-0,077	-0,079	-0,066	-0,042	-0,023	-0,008	0,004	0,007	0,003	-0,007	-0,017	-0,026	-0,036	-0,044	-0,049	-0,049	-0,044	-0,041	-0,043	-0,055	-0,069	-0,081	-0,088	-0,090	-0,095	-0,103	-0,107	-0,100	-0,091	-0,084	-0,077	-0,066	-0,055	-0,051	-0,050	-0,052	-0,054	-0,051	-0,047	-0,045	-0,046	-0,046	-0,046	-0,039	-0,033	-0,029	-0,023	-0,019	-0,024	-0,035	-0,040	-0,040	-0,040	-0,048	-0,063	-0,077	-0,084	-0,085	-0,088	-0,097	-0,102	-0,105	-0,094	-0,068	-0,048	-0,035	-0,028	-0,023	-0,018	-0,021	-0,029	-0,023	-0,009	0,002	0,004	-0,002	-0,020	-0,047	-0,072	-0,086	-0,086	-0,070	-0,047	-0,037	-0,045	-0,057	-0,057	-0,051	-0,045	-0,041	-0,038	-0,035	-0,029	-0,024	-0,029	-0,038	-0,041	-0,040	-0,039	-0,038	-0,037	-0,041	-0,048	-0,054	-0,056	-0,055	-0,043	-0,031	-0,028	-0,029	-0,033	-0,036	-0,032	-0,025	-0,021	-0,018	-0,018	-0,024	-0,030	-0,038	-0,051	-0,062	-0,066	-0,068	-0,062	-0,055	-0,044	-0,034	-0,032	-0,038	-0,045	-0,043	-0,033	-0,016	0,001	0,011	0,012	0,008	0,004	0,003	0,004	0,000	-0,004	-0,008	-0,011	-0,012	-0,008	0,003	0,012	0,021	0,027	0,039	0,050	0,063	0,075	0,082	0,083	0,080	0,086	0,093	0,089	0,086	0,089	0,090	0,096	0,107	0,118	0,125	0,128	0,128	0,129	0,127	0,125	0,130	0,142	0,160	0,178	0,182	0,164	0,136	0,118	0,110	0,102	0,092	0,074	0,051	0,030	0,017	0,014	0,015	0,021	0,018	0,007	0,005	0,010	0,019	0,019	0,008	-0,012	-0,033	-0,054	-0,073	-0,090	-0,102	-0,103	-0,095	-0,087	-0,080	-0,074	-0,067	-0,060	-0,051	-0,041	-0,035	-0,037	-0,041	-0,057	-0,077	-0,089	-0,095	-0,092	-0,083	-0,082	-0,088	-0,099	-0,109	-0,115	-0,117	-0,117	-0,120	-0,122	-0,116	-0,101	-0,085	-0,076	-0,068	-0,071	-0,082	-0,092	-0,101	-0,107	-0,112	-0,110	-0,104	-0,096	-0,090	-0,087	-0,085	-0,087	-0,093	-0,097	-0,100	-0,101	-0,093	-0,087	-0,084	-0,081	-0,076	-0,080	-0,086	-0,091	-0,083	-0,071	-0,066	-0,067	-0,073	-0,078	-0,079	-0,082	-0,087	-0,091	-0,095	-0,101	-0,107	-0,108	-0,106	-0,093	-0,076	-0,063	-0,056	-0,062	-0,076	-0,093	-0,102	-0,098	-0,090	-0,081	-0,073	-0,060	-0,043	-0,024	-0,012	0,004	0,028	0,051	0,076	0,099	0,118	0,143	0,182	0,239	0,300	0,357	0,418	0,483	0,549	0,607	0,655	0,691	0,714	0,729	0,744	0,758	0,767	0,770	0,757	0,713	0,630	0,530	0,429	0,323	0,207	0,098	0,003	-0,075	-0,135	-0,182	-0,215	-0,237	-0,244	-0,244	-0,241	-0,232	-0,210	-0,181	-0,153	-0,129	-0,112	-0,098	-0,095	-0,089	-0,082	-0,085	-0,094	-0,101	-0,103	-0,105	-0,103	-0,100	-0,100	-0,093	-0,079	-0,066	-0,064	-0,073	-0,086	-0,098	-0,115	-0,133	-0,146	-0,156	-0,163	-0,163	-0,163	-0,168	-0,169	-0,167	-0,165	-0,161	-0,154	-0,144	-0,128	-0,109	-0,083	-0,055	-0,039	-0,038	-0,047	-0,068	-0,091	-0,098	-0,091	-0,079	-0,069	-0,070	-0,081	-0,090	-0,096	-0,094	-0,093	-0,100	-0,112	-0,117	-0,119	-0,108	-0,094	-0,092	-0,093	-0,094	-0,091	-0,086	-0,085	-0,084	-0,081	-0,079	-0,077	-0,073	-0,067	-0,060	-0,049	-0,045	-0,057	-0,071	-0,080	-0,087	-0,090	-0,093	-0,093	-0,093	-0,093	-0,091	-0,088	-0,084	-0,071	-0,054	-0,045	-0,053	-0,056	-0,052	-0,045	-0,046	-0,048	-0,042	-0,033	-0,026	-0,026	-0,029	-0,032	-0,031	-0,028	-0,033	-0,043	-0,053	-0,065	-0,079	-0,086	-0,080	-0,080	-0,081	-0,080	-0,076	-0,067	-0,064	-0,063	-0,056	-0,049	-0,039	-0,036	-0,047	-0,060	-0,070	-0,077	-0,082	-0,084	-0,072	-0,056	-0,043	-0,033	-0,025	-0,018	-0,018	-0,021	-0,022	-0,020	-0,020	-0,026	-0,026	-0,030	-0,042	-0,054	-0,062	-0,068	-0,084	-0,090	-0,064	-0,037	-0,029	-0,031	-0,038	-0,045	-0,051	-0,050	-0,046	-0,047	-0,053	-0,055	-0,051	-0,045	-0,047	-0,052	-0,063	-0,074	-0,078	-0,068	-0,061	-0,059	-0,053	-0,058	-0,066	-0,064	-0,060	-0,060	-0,066	-0,074	-0,078	-0,076	-0,076	-0,073	-0,078	-0,075	-0,066	-0,057	-0,057	-0,059	-0,058	-0,056	-0,053	-0,050	-0,039	-0,018	-0,002	-0,002	-0,004	-0,000	0,001	-0,005	-0,011	-0,006	0,001	0,004	0,000	-0,005	-0,007	-0,009	-0,007	-0,009	-0,014	-0,021	-0,029	-0,034	-0,034	-0,023	-0,011	0,003	0,013	0,014	0,010	0,005	-0,009	-0,018	-0,021	-0,026	-0,029	-0,028	-0,023	-0,022	-0,032	-0,030	-0,019	-0,007	-0,001	0,000	0,003	0,002	0,008	0,014	0,010	0,002	-0,006	-0,010	-0,014	-0,023	-0,031	-0,035	-0,037	-0,041	-0,041	-0,041	-0,047	-0,055	-0,057	-0,054	-0,042	-0,024	-0,006	0,011	0,018	0,005	-0,018	-0,039	-0,049	-0,046	-0,036	-0,031	-0,025	-0,016	-0,006	0,001	0,009	0,017	0,028	0,038	0,045	0,045	0,036	0,030	0,029	0,026	0,021	0,009	-0,008	-0,025	-0,035	-0,041	-0,044	-0,045	-0,035	-0,023	-0,017	-0,003	0,014	0,017	0,004	-0,006	0,005	0,021	0,029	0,028	0,025	0,023	0,027	0,030	0,029	0,025	0,024	0,019	0,017	0,017	0,004	-0,010	-0,019	-0,018	-0,008	0,004	0,006	0,001	0,003	0,013	0,018	0,011	-0,005	-0,010	-0,003	-0,000	0,003	0,012	0,018	0,021	0,030	0,037	0,032	0,026	0,030	0,038	0,043	0,052	0,062	0,062	0,053	0,035	0,014	-0,001	-0,002	0,009	0,020	0,023	0,029	0,031	0,031	0,031	0,030	0,024	0,021	0,026	0,030	0,029	0,027	0,024	0,023	0,019	0,016	0,015	0,015	0,018	0,022	0,020	0,011	0,005	0,005	0,010	0,013	0,015	0,019	0,023	0,030	0,036	0,037	0,036	0,038	0,036	0,031	0,028	0,028	0,019	0,005	-0,008	-0,010	-0,005	0,000	0,012	0,023	0,029	0,029	0,031	0,036	0,045	0,053	0,051	0,036	0,021	0,007	-0,002	-0,005	-0,005	0,001	0,015	0,021	0,022	0,017	0,020	0,024	0,019	0,011	-0,004	-0,009	-0,003	0,001	-0,001	-0,005	-0,013	-0,012	0,001	0,015	0,021	0,021	0,017	0,022	0,038	0,049	0,048	0,038	0,034	0,041	0,058	0,072	0,083	0,088	0,084	0,081	0,087	0,092	0,092	0,089	0,082	0,072	0,073	0,083	0,093	0,100	0,098	0,095	0,101	0,112	0,124	0,127	0,129	0,150	0,176	0,196	0,203	0,201	0,196	0,197	0,197	0,196	0,194	0,189	0,189	0,194	0,199	0,199	0,198	0,199	0,205	0,210	0,207	0,198	0,192	0,188	0,187	0,193	0,193	0,180	0,165	0,153	0,149	0,144	0,133	0,122	0,117	0,105	0,084	0,065	0,050	0,040	0,040	0,042	0,034	0,021	0,011	0,005	0,005	0,005	0,003	-0,006	-0,021	-0,027	-0,020	-0,011	0,002	0,016	0,019	0,013	0,003	0,001	0,007	0,015	0,026	0,032	0,032	0,026	0,013	-0,004	-0,011	-0,015	-0,026	-0,040	-0,049	-0,047	-0,032	-0,018	-0,014	-0,016	-0,019	-0,012	0,003	0,015	0,012	-0,001	-0,013	-0,025	-0,034	-0,031	-0,032	-0,038	-0,040	-0,040	-0,035	-0,025	-0,012	-0,004	0,000	0,004	0,015	0,025	0,031	0,027	0,023	0,017	0,005	-0,011	-0,020	-0,018	-0,020	-0,024	-0,032	-0,037	-0,040	-0,033	-0,015	0,012	0,029	0,034	0,039	0,043	0,042	0,038	0,036	0,028	0,010	-0,006	-0,006	0,004	0,013	0,020	0,030	0,045	0,053	0,050	0,046	0,043	0,047	0,055	0,074	0,109	0,153	0,200	0,253	0,314	0,380	0,439	0,500	0,554	0,603	0,649	0,693	0,735	0,765	0,788	0,810	0,827	0,837	0,841	0,847	0,851	0,831	0,780	0,696	0,583	0,452	0,317	0,195	0,094	0,007	-0,067	-0,122	-0,152	-0,171	-0,176	-0,173	-0,174	-0,174	-0,160	-0,134	-0,103	-0,066	-0,035	-0,014	-0,011	-0,012	-0,009	-0,008	-0,011	-0,013	-0,017	-0,015	-0,003	0,005	0,010	0,014	0,012	0,011	0,014	0,020	0,020	0,009	-0,008	-0,016	-0,020	-0,030	-0,038	-0,039	-0,034	-0,029	-0,032	-0,043	-0,044	-0,032	-0,021	-0,018	-0,023	-0,025	-0,025	-0,020	-0,015	-0,014	-0,017	-0,027	-0,042	-0,047	-0,043	-0,038	-0,029	-0,018	-0,004	0,004	0,012	0,018	0,013	0,009	0,016	0,020	0,026	0,029	0,021	0,008	-0,005	-0,018	-0,028	-0,038	-0,046	-0,055	-0,062	-0,063	-0,054	-0,035	-0,016	-0,006	0,001	0,014	0,030	0,033	0,024	0,020	0,021	0,016	0,011	0,009	0,005	-0,003	-0,008	0,001	0,015	0,021	0,031	0,037	0,036	0,032	0,036	0,038	0,034	0,032	0,036	0,045	0,053	0,062	0,062	0,052	0,037	0,022	0,010	0,008	0,009	0,003	0,001	0,006	0,017	0,024	0,025	0,026	0,026	0,033	0,034	0,034	0,041	0,053	0,057	0,050	0,048	0,047	0,036	0,022	0,012	0,005	-0,002	-0,013	-0,021	-0,017	-0,006	0,007	0,023	0,034	0,040	0,044	0,037	0,029	0,021	0,017	0,015	0,014	0,011	0,000	-0,006	-0,007	-0,003	0,001	0,006	0,007	0,003	0,000	-0,003	-0,007	-0,006	0,002	0,009	0,008	0,002	-0,009	-0,026	-0,041	-0,047	-0,051	-0,054	-0,046	-0,023	0,004	0,022	0,031	0,029	0,021	0,017	0,021	0,025	0,015	0,000	-0,005	0,005	0,011	0,013	0,012	0,010	0,010	0,008	0,006	0,001	-0,009	-0,018	-0,021	-0,023	-0,024	-0,024	-0,013	-0,004	-0,000	0,000	-0,001	0,002	0,011	0,014	0,012	0,005	-0,008	-0,015	-0,013	-0,002	0,007	0,007	0,001	-0,002	0,004	0,015	0,020	0,025	0,041	0,053	0,059	0,059	0,053	0,039	0,011	-0,014	-0,012	-0,001	0,005	0,004	-0,008	-0,019	-0,024	-0,024	-0,024	-0,030	-0,036	-0,036	-0,033	-0,032	-0,028	-0,025	-0,017	-0,011	-0,003	-0,000	-0,004	-0,013	-0,024	-0,034	-0,038	-0,029	-0,015	-0,007	-0,001	0,004	0,011	0,021	0,028	0,017	0,007	0,002	-0,009	-0,021	-0,032	-0,038	-0,022	0,008	0,025	0,022	0,018	0,011	0,005	0,004	0,011	0,026	0,031	0,028	0,021	0,012	-0,001	-0,016	-0,034	-0,042	-0,045	-0,040	-0,036	-0,036	-0,032	-0,017	0,000	0,014	0,028	0,035	0,033	0,024	0,015	0,010	0,006	-0,001	-0,008	-0,008	-0,010	-0,012	-0,009	0,001	0,005	0,004	0,007	0,017	0,023	0,023	0,016	0,006	-0,004	-0,012	-0,009	0,004	0,018	0,021	0,016	0,010	0,002	-0,007	-0,010	-0,002	0,002	0,003	0,002	0,004	0,007	0,007	0,005	0,002	0,004	0,004	-0,004	-0,013	-0,019	-0,025	-0,024	-0,025	-0,025	-0,026	-0,029	-0,033	-0,035	-0,025	-0,005	0,006	0,002	-0,020	-0,041	-0,043	-0,036	-0,019	-0,003	0,010	0,024	0,034	0,038	0,039	0,030	0,014	0,003	-0,007	-0,020	-0,032	-0,038	-0,040	-0,038	-0,039	-0,043	-0,051	-0,062	-0,063	-0,045	-0,012	0,014	0,020	0,014	0,005	-0,000	-0,001	0,002	0,008	0,008	0,000	-0,006	-0,007	-0,009	-0,012	-0,015	-0,012	-0,001	0,000	-0,012	-0,024	-0,037	-0,048	-0,051	-0,055	-0,061	-0,058	-0,051	-0,040	-0,025	-0,014	-0,012	-0,017	-0,021	-0,023	-0,021	-0,018	-0,016	-0,012	-0,009	-0,004	-0,001	-0,003	-0,008	-0,010	-0,011	-0,023	-0,034	-0,036	-0,035	-0,043	-0,043	-0,037	-0,034	-0,027	-0,027	-0,033	-0,035	-0,026	-0,018	-0,014	-0,005	0,006	0,007	0,004	0,002	-0,007	-0,023	-0,040	-0,051	-0,053	-0,045	-0,028	-0,008	0,007	0,009	0,005	0,001	-0,001	0,004	0,005	0,004	0,004	0,008	0,007	0,008	0,019	0,030	0,039	0,041	0,037	0,033	0,032	0,032	0,036	0,042	0,048	0,060	0,074	0,085	0,103	0,123	0,135	0,143	0,136	0,120	0,108	0,100	0,096	0,097	0,102	0,109	0,118	0,131	0,149	0,159	0,161	0,161	0,159	0,152	0,147	0,147	0,144	0,132	0,116	0,105	0,103	0,103	0,102	0,089	0,057	0,020	-0,013	-0,037	-0,052	-0,067	-0,071	-0,061	-0,042	-0,027	-0,023	-0,028	-0,032	-0,029	-0,026	-0,027	-0,039	-0,052	-0,066	-0,085	-0,106	-0,121	-0,120	-0,109	-0,101	-0,091	-0,079	-0,067	-0,071	-0,087	-0,100	-0,106	-0,107	-0,106	-0,116	-0,122	-0,122	-0,113	-0,101	-0,093	-0,089	-0,085	-0,080	-0,078	-0,069	-0,063	-0,079	-0,103	-0,113	-0,114	-0,117	-0,125	-0,140	-0,152	-0,159	-0,150	-0,135	-0,123	-0,124	-0,123	-0,118	-0,118	-0,108	-0,093	-0,085	-0,087	-0,104	-0,118	-0,121	-0,120	-0,111	-0,102	-0,101	-0,105	-0,110	-0,106	-0,096	-0,088	-0,094	-0,107	-0,120	-0,136	-0,151	-0,166	-0,180	-0,183	-0,174	-0,157	-0,138	-0,126	-0,116	-0,113	-0,118	-0,120	-0,121	-0,125	-0,130	-0,134	-0,136	-0,132	-0,122	-0,117	-0,109	-0,093	-0,085	-0,083	-0,071	-0,045	-0,008	0,036	0,083	0,119	0,148	0,184	0,234	0,290	0,348	0,403	0,455	0,496	0,534	0,573	0,605	0,619	0,626	0,631	0,639	0,649	0,663	0,665	0,629	0,566	0,483	0,380	0,259	0,135	0,033	-0,050	-0,124	-0,195	-0,260	-0,305	-0,328	-0,338	-0,334	-0,328	-0,323	-0,317	-0,302	-0,279	-0,249	-0,217	-0,189	-0,169	-0,168	-0,177	-0,181	-0,180	-0,177	-0,180	-0,178	-0,171	-0,156	-0,137	-0,127	-0,122	-0,122	-0,122	-0,125	-0,140	-0,156	-0,162	-0,161	-0,160	-0,161	-0,167	-0,179	-0,193	-0,206	-0,214	-0,221	-0,223	-0,217	-0,211	-0,208	-0,208	-0,197	-0,185	-0,179	-0,178	-0,179	-0,175	-0,166	-0,158	-0,154	-0,147	-0,134	-0,129	-0,130	-0,136	-0,142	-0,151	-0,154	-0,153	-0,152	-0,154	-0,158	-0,163	-0,170	-0,162	-0,154	-0,152	-0,152	-0,145	-0,132	-0,124	-0,123	-0,131	-0,146	-0,164	-0,181	-0,191	-0,189	-0,184	-0,183	-0,170	-0,152	-0,132	-0,114	-0,096	-0,084	-0,079	-0,085	-0,095	-0,110	-0,129	-0,140	-0,149	-0,159	-0,169	-0,163	-0,156	-0,153	-0,149	-0,142	-0,133	-0,133	-0,141	-0,144	-0,144	-0,142	-0,143	-0,145	-0,146	-0,147	-0,133	-0,114	-0,106	-0,107	-0,118	-0,129	-0,134	-0,138	-0,141	-0,146	-0,147	-0,143	-0,131	-0,118	-0,113	-0,117	-0,121	-0,120	-0,108	-0,093	-0,097	-0,109	-0,126	-0,145	-0,154	-0,151	-0,146	-0,144	-0,140	-0,134	-0,123	-0,108	-0,100	-0,103	-0,120	-0,136	-0,142	-0,139	-0,130	-0,117	-0,114	-0,124	-0,137	-0,149	-0,154	-0,152	-0,150	-0,151	-0,156	-0,157	-0,156	-0,161	-0,163	-0,165	-0,172	-0,172	-0,161	-0,144	-0,122	-0,105	-0,103	-0,115	-0,131	-0,143	-0,154	-0,161	-0,161	-0,165	-0,169	-0,176	-0,181	-0,182	-0,176	-0,161	-0,146	-0,138	-0,137	-0,148	-0,157	-0,159	-0,160	-0,165	-0,170	-0,164	-0,156	-0,158	-0,169	-0,177	-0,172	-0,163	-0,155	-0,148	-0,149	-0,155	-0,161	-0,161	-0,155	-0,142	-0,124	-0,113	-0,112	-0,116	-0,126	-0,136	-0,137	-0,132	-0,131	-0,134	-0,137	-0,134	-0,132	-0,125	-0,112	-0,103	-0,103	-0,107	-0,106	-0,102	-0,100	-0,099	-0,100	-0,106	-0,117	-0,131	-0,138	-0,137	-0,134	-0,135	-0,141	-0,145	-0,141	-0,138	-0,148	-0,160	-0,166	-0,167	-0,174	-0,185	-0,195	-0,190	-0,173	-0,155	-0,143	-0,133	-0,116	-0,104	-0,106	-0,104	-0,099	-0,098	-0,102	-0,110	-0,120	-0,127	-0,126	-0,120	-0,116	-0,123	-0,139	-0,154	-0,159	-0,161	-0,164	-0,165	-0,169	-0,166	-0,157	-0,146	-0,134	-0,117	-0,110	-0,106	-0,108	-0,116	-0,128	-0,130	-0,120	-0,111	-0,114	-0,118	-0,115	-0,114	-0,118	-0,129	-0,139	-0,143	-0,149	-0,164	-0,173	-0,167	-0,155	-0,146	-0,141	-0,139	-0,130	-0,114	-0,094	-0,083	-0,083	-0,080	-0,080	-0,086	-0,092	-0,096	-0,098	-0,105	-0,114	-0,118	-0,122	-0,136	-0,151	-0,157	-0,157	-0,154	-0,150	-0,147	-0,145	-0,141	-0,136	-0,134	-0,129	-0,127	-0,126	-0,125	-0,124	-0,121	-0,117	-0,119	-0,125	-0,126	-0,120	-0,111	-0,111	-0,110	-0,100	-0,087	-0,084	-0,098	-0,114	-0,131	-0,141	-0,153	-0,166	-0,179	-0,182	-0,167	-0,135	-0,108	-0,094	-0,088	-0,089	-0,089	-0,083	-0,081	-0,096	-0,114	-0,133	-0,141	-0,126	-0,099	-0,088	-0,100	-0,116	-0,129	-0,144	-0,157	-0,164	-0,175	-0,182	-0,176	-0,157	-0,136	-0,121	-0,111	-0,103	-0,098	-0,097	-0,095	-0,092	-0,089	-0,081	-0,079	-0,088	-0,105	-0,121	-0,132	-0,141	-0,150	-0,157	-0,163	-0,162	-0,153	-0,146	-0,146	-0,149	-0,146	-0,136	-0,128	-0,128	-0,136	-0,136	-0,128	-0,116	-0,104	-0,095	-0,090	-0,099	-0,117	-0,130	-0,139	-0,146	-0,149	-0,140	-0,123	-0,099	-0,081	-0,075	-0,085	-0,094	-0,103	-0,113	-0,124	-0,143	-0,162	-0,166	-0,149	-0,116	-0,095	-0,095	-0,103	-0,102	-0,095	-0,089	-0,080	-0,071	-0,065	-0,065	-0,072	-0,077	-0,076	-0,077	-0,079	-0,075	-0,070	-0,065	-0,063	-0,061	-0,056	-0,057	-0,063	-0,067	-0,073	-0,075	-0,070	-0,058	-0,043	-0,029	-0,009	0,014	0,027	0,037	0,050	0,055	0,056	0,060	0,058	0,052	0,056	0,058	0,054	0,049	0,044	0,041	0,041	0,044	0,048	0,054	0,065	0,076	0,078	0,069	0,059	0,049	0,030	0,011	-0,009	-0,027	-0,045	-0,061	-0,068	-0,071	-0,072	-0,083	-0,098	-0,110	-0,118	-0,115	-0,107	-0,103	-0,111	-0,120	-0,125	-0,131	-0,143	-0,161	-0,178	-0,191	-0,192	-0,179	-0,160	-0,151	-0,155	-0,151	-0,153	-0,164	-0,173	-0,175	-0,170	-0,166	-0,164	-0,145	-0,124	-0,119	-0,136	-0,153	-0,164	-0,169	-0,169	-0,171	-0,175	-0,176	-0,184	-0,189	-0,187	-0,181	-0,172	-0,161	-0,149	-0,143	-0,143	-0,153	-0,166	-0,182	-0,201	-0,218	-0,229	-0,228	-0,208	-0,181	-0,163	-0,154	-0,153	-0,152	-0,144	-0,138	-0,137	-0,135	-0,129	-0,118	-0,119	-0,128	-0,139	-0,146	-0,152	-0,160	-0,169	-0,180	-0,190	-0,196	-0,200	-0,202	-0,210	-0,209	-0,191	-0,162	-0,140	-0,125	-0,114	-0,102	-0,086	-0,082	-0,092	-0,105	-0,120	-0,129	-0,132	-0,130	-0,124	-0,119	-0,111	-0,104	-0,102	-0,096	-0,082	-0,060	-0,032	0,004	0,043	0,088	0,130	0,171	0,217	0,277	0,340	0,396	0,437	0,463	0,487	0,520	0,547	0,563	0,574	0,592	0,618	0,640	0,655	0,628	0,556	0,459	0,351	0,239	0,130	0,029	-0,065	-0,148	-0,221	-0,290	-0,345	-0,371	-0,373	-0,363	-0,348	-0,328	-0,302	-0,270	-0,239	-0,207	-0,178	-0,159	-0,146	-0,136	-0,125	-0,117	-0,115	-0,120	-0,131	-0,148	-0,169	-0,184	-0,184	-0,170	-0,156	-0,151	-0,149	-0,149	-0,147	-0,144	-0,151	-0,160	-0,167	-0,169	-0,165	-0,161	-0,156	-0,152	-0,148	-0,155	-0,155	-0,145	-0,141	-0,147	-0,145	-0,135	-0,123	-0,111	-0,094	-0,089	-0,103	-0,115	-0,126	-0,129	-0,125	-0,120	-0,111	-0,111	-0,130	-0,149	-0,157	-0,153	-0,147	-0,142	-0,131	-0,116	-0,105	-0,106	-0,120	-0,138	-0,149	-0,145	-0,135	-0,128	-0,120	-0,110	-0,114	-0,121	-0,123	-0,123	-0,108	-0,089	-0,077	-0,070	-0,067	-0,070	-0,080	-0,082	-0,081	-0,085	-0,091	-0,098	-0,105	-0,117	-0,135	-0,144	-0,132	-0,118	-0,108	-0,093	-0,078	-0,075	-0,076	-0,077	-0,082	-0,090	-0,083	-0,072	-0,072	-0,074	-0,071	-0,063	-0,070	-0,088	-0,104	-0,111	-0,107	-0,102	-0,101	-0,094	-0,093	-0,105	-0,113	-0,118	-0,108	-0,098	-0,088	-0,073	-0,057	-0,045	-0,041	-0,037	-0,038	-0,039	-0,041	-0,047	-0,055	-0,070	-0,085	-0,093	-0,097	-0,093	-0,077	-0,065	-0,058	-0,056	-0,061	-0,067	-0,077	-0,084	-0,084	-0,077	-0,073	-0,068	-0,063	-0,054	-0,050	-0,059	-0,072	-0,073	-0,069	-0,071	-0,075	-0,076	-0,076	-0,065	-0,055	-0,053	-0,057	-0,058	-0,059	-0,064	-0,074	-0,079	-0,083	-0,088	-0,101	-0,110	-0,107	-0,102	-0,097	-0,093	-0,093	-0,093	-0,096	-0,103	-0,112	-0,108	-0,095	-0,082	-0,085	-0,098	-0,109	-0,106	-0,101	-0,095	-0,088	-0,089	-0,095	-0,097	-0,097	-0,090	-0,090	-0,088	-0,088	-0,088	-0,084	-0,079	-0,075	-0,072	-0,068	-0,070	-0,082	-0,092	-0,093	-0,094	-0,099	-0,108	-0,115	-0,114	-0,095	-0,070	-0,043	-0,032	-0,038	-0,047	-0,054	-0,063	-0,066	-0,057	-0,045	-0,029	-0,015	-0,008	-0,010	-0,028	-0,059	-0,084	-0,094	-0,100	-0,098	-0,090	-0,080	-0,078	-0,077	-0,082	-0,084	-0,077	-0,064	-0,046	-0,027	-0,012	-0,007	-0,015	-0,026	-0,036	-0,049	-0,063	-0,072	-0,075	-0,080	-0,091	-0,092	-0,084	-0,071	-0,065	-0,056	-0,051	-0,052	-0,053	-0,055	-0,057	-0,058	-0,063	-0,079	-0,096	-0,106	-0,103	-0,092	-0,082	-0,074	-0,072	-0,074	-0,079	-0,084	-0,081	-0,070	-0,064	-0,061	-0,055	-0,049	-0,050	-0,056	-0,067	-0,070	-0,068	-0,069	-0,069	-0,068	-0,063	-0,058	-0,062	-0,060	-0,052	-0,044	-0,036	-0,038	-0,041	-0,043	-0,040	-0,035	-0,029	-0,033	-0,041	-0,055	-0,070	-0,070	-0,071	-0,078	-0,083	-0,083	-0,081	-0,078	-0,069	-0,065	-0,058	-0,049	-0,048	-0,040	-0,027	-0,022	-0,028	-0,043	-0,061	-0,077	-0,087	-0,085	-0,076	-0,063	-0,044	-0,027	-0,021	-0,018	-0,014	-0,011	-0,011	-0,018	-0,028	-0,037	-0,039	-0,039	-0,041	-0,042	-0,040	-0,041	-0,038	-0,036	-0,038	-0,039	-0,038	-0,037	-0,036	-0,031	-0,033	-0,040	-0,040	-0,029	-0,019	-0,023	-0,029	-0,034	-0,035	-0,035	-0,035	-0,035	-0,047	-0,059	-0,065	-0,074	-0,091	-0,104	-0,103	-0,100	-0,104	-0,110	-0,107	-0,093	-0,061	-0,017	0,016	0,021	0,012	0,000	-0,010	-0,017	-0,027	-0,039	-0,044	-0,041	-0,037	-0,032	-0,027	-0,029	-0,030	-0,032	-0,032	-0,030	-0,027	-0,028	-0,033	-0,041	-0,050	-0,056	-0,064	-0,063	-0,062	-0,065	-0,072	-0,075	-0,074	-0,060	-0,039	-0,023	-0,021	-0,026	-0,027	-0,023	-0,015	-0,008	-0,004	-0,003	-0,011	-0,013	-0,009	-0,004	-0,006	-0,014	-0,027	-0,041	-0,047	-0,050	-0,052	-0,059	-0,061	-0,056	-0,048	-0,037	-0,024	-0,020	-0,020	-0,016	-0,012	-0,010	-0,006	0,007	0,028	0,044	0,044	0,041	0,035	0,036	0,045	0,046	0,033	0,018	0,007	-0,003	-0,010	-0,005	0,020	0,050	0,072	0,092	0,098	0,099	0,102	0,101	0,101	0,105	0,110	0,119	0,127	0,131	0,126	0,117	0,119	0,130	0,142	0,152	0,154	0,153	0,155	0,153	0,143	0,138	0,137	0,135	0,129	0,106	0,077	0,052	0,042	0,033	0,017	0,009	0,001	-0,009	-0,005	0,004	0,006	0,008	0,016	0,014	0,001	-0,016	-0,034	-0,050	-0,055	-0,054	-0,050	-0,050	-0,051	-0,055	-0,065	-0,075	-0,076	-0,066	-0,053	-0,044	-0,035	-0,034	-0,039	-0,039	-0,046	-0,060	-0,068	-0,069	-0,074	-0,076	-0,071	-0,062	-0,065	-0,076	-0,083	-0,092	-0,103	-0,111	-0,108	-0,096	-0,078	-0,057	-0,041	-0,049	-0,064	-0,068	-0,069	-0,074	-0,080	-0,092	-0,104	-0,106	-0,098	-0,085	-0,077	-0,077	-0,080	-0,082	-0,088	-0,098	-0,094	-0,080	-0,067	-0,059	-0,052	-0,051	-0,050	-0,054	-0,062	-0,075	-0,086	-0,086	-0,074	-0,062	-0,053	-0,044	-0,040	-0,042	-0,046	-0,050	-0,060	-0,070	-0,074	-0,077	-0,084	-0,092	-0,092	-0,085	-0,083	-0,070	-0,057	-0,055	-0,055	-0,053	-0,044	-0,036	-0,025	-0,009	0,006	0,015	0,025	0,035	0,040	0,053	0,077	0,105	0,141	0,193	0,261	0,332	0,396	0,449	0,495	0,538	0,571	0,601	0,633	0,660	0,684	0,701	0,722	0,737	0,738	0,706	0,641	0,556	0,460	0,350	0,229	0,111	0,003	-0,080	-0,135	-0,169	-0,198	-0,223	-0,237	-0,239	-0,234	-0,220	-0,199	-0,176	-0,149	-0,118	-0,093	-0,078	-0,073	-0,076	-0,077	-0,074	-0,069	-0,061	-0,058	-0,052	-0,047	-0,037	-0,032	-0,033	-0,036	-0,043	-0,048	-0,057	-0,069	-0,072	-0,062	-0,053	-0,048	-0,053	-0,066	-0,081	-0,088	-0,088	-0,091	-0,097	-0,100	-0,099	-0,087	-0,066	-0,047	-0,035	-0,035	-0,044	-0,050	-0,051	-0,050	-0,050	-0,051	-0,056	-0,058	-0,058	-0,060	-0,064	-0,069	-0,066	-0,056	-0,045	-0,043	-0,042	-0,034	-0,034	-0,039	-0,046	-0,052	-0,057	-0,049	-0,030	-0,024	-0,033	-0,043	-0,047	-0,048	-0,039	-0,032	-0,032	-0,030	-0,022	-0,019	-0,015	-0,015	-0,014	-0,013	-0,008	0,003	0,012	0,013	0,003	-0,012	-0,024	-0,035	-0,044	-0,048	-0,039	-0,026	-0,020	-0,020	-0,014	-0,005	-0,002	-0,003	-0,001	0,000	-0,005	-0,006	0,001	0,007	0,010	0,012	0,012	0,011	0,004	-0,006	-0,014	-0,019	-0,022	-0,026	-0,025	-0,013	0,003	0,019	0,035	0,046	0,042	0,030	0,016	-0,002	-0,021	-0,025	-0,020	-0,011	-0,005	-0,003	0,006	0,009	0,006	0,009	0,014	0,013	0,013	0,010	0,008	0,009	0,011	0,013	0,014	0,012	0,008	0,006	0,017	0,029	0,037	0,047	0,047	0,037	0,018	-0,008	-0,033	-0,046	-0,043	-0,026	-0,015	-0,005	0,009	0,019	0,016	0,004	-0,015	-0,033	-0,044	-0,045	-0,039	-0,032	-0,014	0,001	0,005	0,006	0,006	0,010	0,008	-0,001	-0,005	0,003	0,014	0,016	0,011	-0,000	-0,016	-0,031	-0,039	-0,047	-0,049	-0,047	-0,040	-0,036	-0,031	-0,021	-0,008	0,007	0,017	0,030	0,043	0,048	0,044	0,044	0,055	0,060	0,055	0,040	0,018	-0,003	-0,015	-0,018	-0,011	0,000	0,012	0,024	0,027	0,028	0,039	0,051	0,055	0,049	0,035	0,031	0,043	0,053	0,058	0,061	0,066	0,078	0,092	0,092	0,075	0,055	0,037	0,026	0,014	0,009	0,017	0,029	0,036	0,039	0,040	0,039	0,030	0,027	0,025	0,021	0,014	0,005	-0,006	-0,012	-0,009	0,001	0,016	0,035	0,051	0,063	0,066	0,060	0,049	0,033	0,020	0,020	0,022	0,017	0,005	0,000	0,008	0,020	0,035	0,045	0,039	0,033	0,029	0,026	0,029	0,028	0,017	0,008	0,014	0,025	0,036	0,051	0,071	0,082	0,076	0,064	0,049	0,044	0,049	0,049	0,044	0,038	0,036	0,044	0,046	0,048	0,057	0,068	0,077	0,083	0,076	0,065	0,047	0,032	0,028	0,024	0,026	0,036	0,049	0,056	0,059	0,060	0,056	0,048	0,039	0,035	0,034	0,028	0,025	0,027	0,029	0,034	0,049	0,055	0,049	0,028	0,006	-0,008	-0,008	0,002	0,021	0,043	0,066	0,079	0,082	0,076	0,066	0,055	0,036	0,002	-0,024	-0,032	-0,022	-0,005	0,017	0,045	0,061	0,070	0,074	0,081	0,094	0,104	0,096	0,082	0,074	0,073	0,067	0,058	0,057	0,058	0,064	0,067	0,071	0,080	0,085	0,088	0,089	0,077	0,062	0,048	0,041	0,040	0,052	0,067	0,077	0,075	0,073	0,075	0,077	0,086	0,095	0,091	0,079	0,063	