0,024	0,028	0,015	-0,005	-0,015	-0,027	-0,031	-0,020	-0,004	-0,004	-0,012	-0,018	-0,017	-0,009	0,006	0,019	0,033	0,045	0,062	0,085	0,095	0,087	0,072	0,059	0,050	0,045	0,039	0,045	0,064	0,072	0,067	0,053	0,042	0,051	0,078	0,115	0,125	0,118	0,112	0,108	0,100	0,089	0,082	0,077	0,078	0,094	0,126	0,162	0,171	0,155	0,150	0,163	0,184	0,201	0,212	0,214	0,218	0,222	0,216	0,211	0,207	0,211	0,212	0,208	0,200	0,197	0,194	0,190	0,185	0,181	0,183	0,201	0,225	0,237	0,237	0,228	0,207	0,195	0,203	0,217	0,224	0,228	0,235	0,228	0,210	0,186	0,168	0,172	0,190	0,209	0,223	0,217	0,191	0,162	0,147	0,155	0,168	0,153	0,127	0,108	0,096	0,093	0,098	0,096	0,078	0,059	0,057	0,074	0,083	0,070	0,055	0,049	0,058	0,070	0,069	0,070	0,079	0,086	0,078	0,049	0,028	0,013	-0,006	-0,014	-0,016	-0,021	-0,016	0,003	0,020	0,027	0,024	0,029	0,048	0,065	0,064	0,053	0,039	0,027	0,027	0,028	0,029	0,024	0,020	0,016	0,005	-0,010	-0,019	-0,020	-0,020	-0,020	-0,028	-0,032	-0,028	-0,019	-0,012	-0,015	-0,019	-0,018	-0,002	0,016	0,031	0,024	0,005	-0,006	-0,017	-0,025	-0,029	-0,032	-0,026	-0,012	0,006	0,009	-0,004	-0,024	-0,039	-0,051	-0,065	-0,076	-0,068	-0,042	-0,006	0,018	0,026	0,011	-0,016	-0,026	-0,023	-0,017	-0,007	0,005	0,027	0,033	0,017	0,004	0,004	0,008	0,006	0,008	0,023	0,050	0,075	0,084	0,079	0,065	0,050	0,051	0,066	0,078	0,095	0,120	0,136	0,130	0,116	0,099	0,093	0,116	0,148	0,170	0,177	0,175	0,174	0,175	0,172	0,167	0,162	0,149	0,126	0,111	0,104	0,118	0,150	0,188	0,219	0,244	0,261	0,266	0,257	0,235	0,211	0,198	0,188	0,170	0,152	0,135	0,116	0,104	0,091	0,079	0,072	0,066	0,049	0,029	0,004	-0,014	-0,019	-0,007	-0,008	-0,019	-0,022	-0,026	-0,039	-0,046	-0,048	-0,057	-0,054	-0,052	-0,071	-0,097	-0,115	-0,129	-0,134	-0,131	-0,124	-0,122	-0,139	-0,147	-0,128	-0,104	-0,098	-0,090	-0,082	-0,067	-0,063	-0,075	-0,098	-0,116	-0,117	-0,109	-0,108	-0,112	-0,114	-0,112	-0,108	-0,098	-0,081	-0,066	-0,060	-0,062	-0,068	-0,077	-0,083	-0,095	-0,105	-0,097	-0,087	-0,085	-0,087	-0,079	-0,076	-0,079	-0,081	-0,086	-0,090	-0,087	-0,068	-0,057	-0,054	-0,065	-0,088	-0,095	-0,086	-0,073	-0,076	-0,080	-0,067	-0,052	-0,044	-0,027	-0,012	-0,010	-0,005	0,016	0,049	0,081	0,110	0,147	0,188	0,228	0,278	0,344	0,418	0,487	0,549	0,598	0,639	0,678	0,728	0,773	0,808	0,830	0,850	0,869	0,884	0,892	0,882	0,823	0,728	0,623	0,520	0,404	0,264	0,129	0,019	-0,094	-0,217	-0,328	-0,405	-0,448	-0,461	-0,457	-0,442	-0,425	-0,416	-0,405	-0,382	-0,360	-0,331	-0,291	-0,251	-0,225	-0,205	-0,187	-0,176	-0,195	-0,212	-0,203	-0,198	-0,204	-0,212	-0,194	-0,153	-0,108	-0,072	-0,052	-0,060	-0,068	-0,072	-0,078	-0,089	-0,097	-0,097	-0,090	-0,087	-0,083	-0,085	-0,085	-0,090	-0,088	-0,081	-0,077	-0,082	-0,101	-0,121	-0,126	-0,114	-0,095	-0,081	-0,060	-0,019	0,008	-0,001	-0,035	-0,060	-0,069	-0,075	-0,077	-0,077	-0,073	-0,059	-0,047	-0,033	-0,013	-0,001	-0,003	-0,012	-0,019	-0,011	0,005	0,018	0,025	0,022	0,013	0,003	-0,009	-0,028	-0,052	-0,067	-0,072	-0,060	-0,032	0,004	0,028	0,031	0,031	0,039	0,054	0,058	0,052	0,040	0,033	0,026	0,025	0,044	0,056	0,051	0,044	0,053	0,068	0,066	0,052	0,052	0,072	0,083	0,076	0,071	0,077	0,088	0,094	0,109	0,132	0,138	0,134	0,142	0,146	0,137	0,127	0,127	0,132	0,135	0,128	0,135	0,157	0,185	0,205	0,212	0,210	0,199	0,180	0,166	0,172	0,195	0,216	0,229	0,231	0,228	0,236	0,251	0,248	0,244	0,245	0,252	0,257	0,255	0,250	0,243	0,241	0,242	0,242	0,248	0,253	0,249	0,237	0,220	0,197	0,183	0,172	0,151	0,127	0,130	0,161	0,189	0,205	0,209	0,218	0,225	0,222	0,201	0,176	0,167	0,183	0,197	0,191	0,178	0,172	0,159	0,140	0,126	0,120	0,116	0,102	0,092	0,109	0,123	0,118	0,094	0,071	0,078	0,096	0,100	0,103	0,102	0,096	0,081	0,062	0,046	0,031	0,021	0,017	0,027	0,034	0,031	0,030	0,037	0,044	0,054	0,078	0,107	0,113	0,083	0,045	0,023	0,013	0,010	-0,000	-0,021	-0,038	-0,048	-0,047	-0,030	-0,003	0,023	0,045	0,059	0,072	0,077	0,078	0,065	0,057	0,052	0,045	0,021	-0,013	-0,035	-0,035	-0,029	-0,023	-0,033	-0,035	-0,028	-0,023	-0,026	-0,026	-0,017	-0,002	0,008	0,008	0,018	0,029	0,028	0,028	0,036	0,039	0,048	0,055	0,050	0,026	0,002	-0,012	-0,006	0,019	0,041	0,056	0,073	0,076	0,070	0,089	0,101	0,088	0,058	0,035	0,019	0,017	0,035	0,045	0,052	0,055	0,058	0,062	0,073	0,091	0,108	0,111	0,084	0,062	0,080	0,119	0,156	0,173	0,172	0,167	0,157	0,147	0,142	0,146	0,157	0,179	0,204	0,225	0,242	0,247	0,244	0,226	0,213	0,209	0,205	0,197	0,202	0,223	0,226	0,200	0,159	0,129	0,103	0,070	0,031	0,000	-0,016	-0,022	-0,015	-0,007	-0,006	-0,007	-0,011	-0,016	-0,022	-0,029	-0,036	-0,049	-0,075	-0,102	-0,113	-0,109	-0,107	-0,098	-0,086	-0,085	-0,091	-0,106	-0,119	-0,120	-0,106	-0,088	-0,075	-0,078	-0,094	-0,104	-0,112	-0,112	-0,108	-0,107	-0,113	-0,119	-0,121	-0,120	-0,117	-0,114	-0,100	-0,078	-0,069	-0,081	-0,103	-0,113	-0,120	-0,119	-0,108	-0,074	-0,036	-0,020	-0,029	-0,040	-0,045	-0,037	-0,031	-0,042	-0,057	-0,062	-0,068	-0,060	-0,054	-0,064	-0,086	-0,108	-0,120	-0,112	-0,093	-0,080	-0,067	-0,064	-0,063	-0,042	-0,026	-0,031	-0,049	-0,061	-0,073	-0,085	-0,103	-0,110	-0,092	-0,054	-0,004	0,064	0,125	0,185	0,248	0,325	0,413	0,490	0,544	0,589	0,627	0,666	0,702	0,749	0,795	0,829	0,843	0,851	0,868	0,896	0,912	0,899	0,837	0,742	0,628	0,501	0,370	0,248	0,134	0,023	-0,076	-0,167	-0,245	-0,295	-0,331	-0,362	-0,393	-0,422	-0,427	-0,389	-0,329	-0,271	-0,238	-0,226	-0,220	-0,226	-0,227	-0,223	-0,229	-0,220	-0,190	-0,162	-0,141	-0,130	-0,130	-0,125	-0,117	-0,128	-0,151	-0,158	-0,127	-0,093	-0,085	-0,094	-0,112	-0,136	-0,147	-0,137	-0,123	-0,130	-0,138	-0,137	-0,136	-0,134	-0,134	-0,137	-0,141	-0,129	-0,104	-0,082	-0,070	-0,063	-0,056	-0,057	-0,053	-0,046	-0,047	-0,047	-0,048	-0,049	-0,055	-0,062	-0,058	-0,045	-0,038	-0,042	-0,054	-0,068	-0,073	-0,072	-0,065	-0,045	-0,023	-0,008	-0,002	0,002	0,003	-0,011	-0,025	-0,030	-0,027	0,001	0,036	0,046	0,030	0,006	-0,017	-0,030	-0,037	-0,032	-0,025	-0,030	-0,024	-0,006	0,018	0,047	0,075	0,087	0,087	0,087	0,085	0,071	0,053	0,050	0,067	0,076	0,074	0,073	0,072	0,075	0,091	0,110	0,112	0,104	0,095	0,100	0,120	0,136	0,136	0,128	0,124	0,122	0,118	0,120	0,140	0,167	0,190	0,191	0,166	0,144	0,147	0,161	0,175	0,181	0,175	0,170	0,180	0,205	0,226	0,235	0,230	0,218	0,207	0,207	0,212	0,207	0,191	0,174	0,168	0,168	0,181	0,207	0,225	0,222	0,213	0,212	0,218	0,226	0,233	0,247	0,244	0,220	0,199	0,176	0,160	0,146	0,134	0,120	0,103	0,090	0,080	0,073	0,070	0,081	0,105	0,122	0,118	0,101	0,099	0,121	0,148	0,161	0,155	0,137	0,119	0,107	0,102	0,091	0,080	0,072	0,064	0,050	0,026	0,010	0,015	0,037	0,051	0,052	0,053	0,037	0,012	-0,005	-0,007	0,005	0,018	0,027	0,019	-0,008	-0,034	-0,043	-0,035	-0,023	-0,012	-0,003	-0,001	-0,002	0,004	0,006	-0,002	-0,004	-0,006	-0,007	-0,006	-0,003	0,000	-0,005	-0,018	-0,029	-0,041	-0,052	-0,050	-0,037	-0,029	-0,018	-0,008	-0,000	0,004	-0,012	-0,039	-0,047	-0,035	-0,024	-0,027	-0,037	-0,046	-0,059	-0,069	-0,077	-0,075	-0,069	-0,056	-0,037	-0,017	-0,014	-0,021	-0,034	-0,055	-0,075	-0,087	-0,069	-0,038	-0,022	-0,026	-0,035	-0,040	-0,049	-0,049	-0,045	-0,037	-0,030	-0,024	-0,019	-0,033	-0,047	-0,037	-0,014	0,009	0,021	0,018	0,021	0,038	0,045	0,037	0,020	0,006	-0,001	0,002	0,014	0,030	0,045	0,071	0,099	0,107	0,121	0,128	0,128	0,124	0,124	0,128	0,128	0,132	0,138	0,143	0,143	0,144	0,146	0,145	0,141	0,138	0,133	0,134	0,151	0,163	0,175	0,185	0,171	0,151	0,148	0,150	0,147	0,139	0,132	0,129	0,128	0,116	0,091	0,055	0,024	0,010	0,004	-0,005	-0,021	-0,045	-0,071	-0,084	-0,080	-0,082	-0,091	-0,106	-0,126	-0,137	-0,138	-0,138	-0,130	-0,119	-0,113	-0,114	-0,115	-0,114	-0,109	-0,112	-0,127	-0,145	-0,159	-0,167	-0,168	-0,158	-0,147	-0,149	-0,165	-0,178	-0,177	-0,161	-0,141	-0,130	-0,126	-0,124	-0,132	-0,140	-0,136	-0,119	-0,102	-0,099	-0,103	-0,114	-0,111	-0,087	-0,073	-0,078	-0,095	-0,113	-0,132	-0,153	-0,165	-0,149	-0,115	-0,095	-0,105	-0,117	-0,126	-0,134	-0,139	-0,146	-0,148	-0,142	-0,128	-0,112	-0,096	-0,092	-0,101	-0,114	-0,119	-0,112	-0,103	-0,104	-0,102	-0,094	-0,091	-0,101	-0,113	-0,113	-0,093	-0,055	-0,013	0,034	0,083	0,123	0,175	0,246	0,319	0,393	0,472	0,535	0,577	0,610	0,643	0,664	0,677	0,720	0,773	0,807	0,825	0,825	0,808	0,771	0,702	0,602	0,481	0,346	0,209	0,088	-0,011	-0,102	-0,191	-0,277	-0,350	-0,405	-0,443	-0,467	-0,485	-0,497	-0,495	-0,474	-0,444	-0,407	-0,365	-0,321	-0,277	-0,240	-0,215	-0,207	-0,213	-0,230	-0,253	-0,267	-0,269	-0,272	-0,263	-0,235	-0,220	-0,220	-0,220	-0,206	-0,189	-0,175	-0,168	-0,172	-0,172	-0,158	-0,134	-0,130	-0,144	-0,149	-0,150	-0,158	-0,171	-0,180	-0,190	-0,193	-0,198	-0,207	-0,208	-0,208	-0,214	-0,220	-0,217	-0,189	-0,159	-0,146	-0,142	-0,138	-0,137	-0,138	-0,147	-0,159	-0,166	-0,168	-0,165	-0,169	-0,180	-0,181	-0,161	-0,125	-0,093	-0,074	-0,074	-0,087	-0,084	-0,072	-0,059	-0,057	-0,062	-0,077	-0,100	-0,106	-0,097	-0,087	-0,079	-0,076	-0,072	-0,073	-0,074	-0,066	-0,059	-0,055	-0,046	-0,041	-0,043	-0,051	-0,070	-0,082	-0,080	-0,073	-0,062	-0,042	-0,027	-0,026	-0,031	-0,028	-0,015	0,008	0,026	0,033	0,029	0,030	0,047	0,057	0,061	0,060	0,051	0,027	0,008	0,008	0,019	0,027	0,039	0,044	0,031	0,016	0,017	0,031	0,041	0,039	0,047	0,072	0,106	0,123	0,126	0,124	0,133	0,154	0,160	0,152	0,141	0,123	0,097	0,080	0,086	0,101	0,112	0,123	0,130	0,137	0,135	0,122	0,117	0,130	0,144	0,148	0,151	0,147	0,134	0,112	0,091	0,078	0,062	0,056	0,052	0,049	0,041	0,026	0,018	0,013	0,004	0,002	0,006	0,009	0,001	-0,024	-0,038	-0,031	-0,023	-0,039	-0,051	-0,035	-0,007	0,007	0,002	-0,005	-0,027	-0,060	-0,091	-0,120	-0,143	-0,144	-0,129	-0,113	-0,100	-0,089	-0,078	-0,071	-0,072	-0,080	-0,106	-0,126	-0,134	-0,118	-0,108	-0,121	-0,139	-0,144	-0,137	-0,114	-0,097	-0,092	-0,097	-0,096	-0,090	-0,090	-0,097	-0,106	-0,108	-0,113	-0,127	-0,147	-0,158	-0,153	-0,144	-0,141	-0,142	-0,152	-0,162	-0,170	-0,169	-0,161	-0,159	-0,163	-0,159	-0,137	-0,102	-0,083	-0,084	-0,097	-0,104	-0,115	-0,123	-0,134	-0,162	-0,190	-0,204	-0,199	-0,195	-0,209	-0,214	-0,217	-0,207	-0,192	-0,186	-0,177	-0,174	-0,176	-0,184	-0,178	-0,157	-0,141	-0,136	-0,131	-0,130	-0,126	-0,126	-0,132	-0,139	-0,152	-0,162	-0,170	-0,166	-0,157	-0,146	-0,138	-0,129	-0,119	-0,115	-0,108	-0,104	-0,109	-0,116	-0,113	-0,111	-0,109	-0,105	-0,105	-0,099	-0,094	-0,082	-0,060	-0,041	-0,040	-0,031	-0,013	0,004	0,016	0,026	0,033	0,033	0,022	0,007	-0,001	0,001	0,013	0,026	0,045	0,054	0,049	0,041	0,039	0,045	0,062	0,094	0,111	0,105	0,085	0,055	0,023	-0,007	-0,034	-0,059	-0,082	-0,098	-0,098	-0,097	-0,113	-0,139	-0,160	-0,168	-0,182	-0,195	-0,208	-0,233	-0,266	-0,291	-0,295	-0,296	-0,306	-0,308	-0,294	-0,280	-0,285	-0,311	-0,314	-0,290	-0,265	-0,250	-0,252	-0,257	-0,254	-0,247	-0,243	-0,248	-0,252	-0,247	-0,245	-0,254	-0,264	-0,287	-0,320	-0,343	-0,345	-0,341	-0,330	-0,318	-0,311	-0,302	-0,287	-0,276	-0,262	-0,238	-0,229	-0,236	-0,242	-0,242	-0,238	-0,233	-0,229	-0,232	-0,249	-0,264	-0,278	-0,284	-0,283	-0,274	-0,262	-0,245	-0,238	-0,239	-0,234	-0,225	-0,227	-0,233	-0,227	-0,211	-0,201	-0,198	-0,197	-0,204	-0,223	-0,258	-0,285	-0,284	-0,262	-0,244	-0,231	-0,224	-0,229	-0,235	-0,217	-0,170	-0,116	-0,073	-0,037	0,004	0,070	0,148	0,204	0,241	0,283	0,342	0,410	0,479	0,541	0,593	0,633	0,672	0,703	0,719	0,726	0,718	0,684	0,621	0,528	0,410	0,296	0,194	0,077	-0,051	-0,173	-0,289	-0,396	-0,480	-0,537	-0,581	-0,618	-0,635	-0,640	-0,632	-0,607	-0,576	-0,545	-0,510	-0,470	-0,434	-0,405	-0,380	-0,356	-0,338	-0,329	-0,330	-0,334	-0,331	-0,326	-0,324	-0,325	-0,323	-0,317	-0,307	-0,301	-0,293	-0,289	-0,290	-0,296	-0,303	-0,306	-0,313	-0,325	-0,331	-0,314	-0,274	-0,248	-0,246	-0,254	-0,259	-0,259	-0,247	-0,229	-0,221	-0,218	-0,218	-0,222	-0,219	-0,217	-0,225	-0,241	-0,255	-0,264	-0,266	-0,262	-0,250	-0,227	-0,212	-0,215	-0,235	-0,254	-0,259	-0,250	-0,235	-0,220	-0,196	-0,178	-0,163	-0,166	-0,188	-0,209	-0,215	-0,184	-0,139	-0,124	-0,142	-0,169	-0,188	-0,203	-0,208	-0,210	-0,207	-0,205	-0,200	-0,194	-0,197	-0,205	-0,201	-0,194	-0,194	-0,195	-0,190	-0,175	-0,166	-0,165	-0,148	-0,128	-0,132	-0,155	-0,163	-0,141	-0,109	-0,080	-0,082	-0,103	-0,114	-0,111	-0,091	-0,066	-0,057	-0,069	-0,082	-0,073	-0,056	-0,040	-0,027	-0,014	-0,007	-0,002	0,005	0,010	0,011	0,006	0,005	0,016	0,028	0,032	0,033	0,040	0,050	0,059	0,068	0,070	0,067	0,054	0,033	0,031	0,045	0,061	0,062	0,061	0,077	0,091	0,086	0,076	0,066	0,072	0,080	0,080	0,071	0,070	0,086	0,096	0,081	0,068	0,060	0,044	0,022	0,001	-0,018	-0,031	-0,041	-0,052	-0,064	-0,060	-0,045	-0,029	-0,016	-0,014	-0,024	-0,045	-0,056	-0,068	-0,087	-0,109	-0,118	-0,112	-0,111	-0,106	-0,107	-0,113	-0,118	-0,111	-0,099	-0,095	-0,093	-0,096	-0,105	-0,121	-0,134	-0,149	-0,158	-0,157	-0,156	-0,160	-0,160	-0,136	-0,113	-0,111	-0,125	-0,147	-0,160	-0,171	-0,188	-0,204	-0,211	-0,210	-0,213	-0,234	-0,236	-0,214	-0,181	-0,165	-0,178	-0,204	-0,232	-0,244	-0,242	-0,229	-0,222	-0,217	-0,208	-0,196	-0,187	-0,182	-0,182	-0,185	-0,175	-0,165	-0,168	-0,170	-0,175	-0,182	-0,192	-0,210	-0,233	-0,243	-0,250	-0,258	-0,259	-0,238	-0,200	-0,168	-0,145	-0,121	-0,115	-0,132	-0,148	-0,160	-0,179	-0,189	-0,195	-0,209	-0,225	-0,234	-0,235	-0,234	-0,236	-0,223	-0,201	-0,190	-0,189	-0,195	-0,203	-0,202	-0,185	-0,180	-0,182	-0,166	-0,140	-0,112	-0,084	-0,061	-0,055	-0,060	-0,080	-0,104	-0,118	-0,117	-0,092	-0,052	-0,030	-0,040	-0,049	-0,054	-0,071	-0,095	-0,101	-0,090	-0,075	-0,065	-0,058	-0,052	-0,047	-0,046	-0,055	-0,071	-0,082	-0,072	-0,050	-0,017	0,024	0,050	0,061	0,063	0,057	0,051	0,045	0,039	0,034	0,029	0,034	0,055	0,063	0,047	0,020	0,000	-0,014	-0,018	-0,034	-0,063	-0,091	-0,112	-0,123	-0,127	-0,127	-0,134	-0,155	-0,177	-0,192	-0,195	-0,206	-0,219	-0,227	-0,244	-0,284	-0,317	-0,336	-0,338	-0,329	-0,311	-0,284	-0,262	-0,250	-0,246	-0,242	-0,246	-0,257	-0,263	-0,264	-0,255	-0,250	-0,249	-0,254	-0,262	-0,279	-0,301	-0,317	-0,324	-0,311	-0,283	-0,260	-0,249	-0,237	-0,229	-0,226	-0,223	-0,223	-0,232	-0,254	-0,256	-0,249	-0,249	-0,255	-0,249	-0,259	-0,282	-0,290	-0,279	-0,257	-0,238	-0,225	-0,222	-0,228	-0,238	-0,231	-0,207	-0,190	-0,188	-0,203	-0,232	-0,255	-0,262	-0,269	-0,268	-0,256	-0,235	-0,207	-0,192	-0,189	-0,200	-0,221	-0,231	-0,224	-0,209	-0,184	-0,156	-0,122	-0,083	-0,043	-0,009	0,013	0,039	0,079	0,129	0,189	0,250	0,311	0,373	0,440	0,513	0,584	0,645	0,685	0,710	0,727	0,733	0,741	0,758	0,751	0,681	0,577	0,474	0,355	0,209	0,046	-0,108	-0,230	-0,318	-0,381	-0,439	-0,488	-0,522	-0,548	-0,567	-0,579	-0,579	-0,574	-0,564	-0,549	-0,523	-0,492	-0,459	-0,431	-0,406	-0,391	-0,384	-0,379	-0,364	-0,346	-0,322	-0,294	-0,264	-0,243	-0,239	-0,248	-0,259	-0,246	-0,221	-0,209	-0,215	-0,230	-0,249	-0,254	-0,241	-0,225	-0,220	-0,219	-0,213	-0,203	-0,213	-0,239	-0,268	-0,286	-0,276	-0,253	-0,240	-0,232	-0,230	-0,228	-0,221	-0,215	-0,213	-0,210	-0,208	-0,217	-0,226	-0,220	-0,207	-0,192	-0,182	-0,167	-0,139	-0,112	-0,092	-0,099	-0,123	-0,121	-0,092	-0,084	-0,108	-0,146	-0,165	-0,169	-0,159	-0,142	-0,124	-0,112	-0,106	-0,102	-0,099	-0,100	-0,102	-0,110	-0,105	-0,094	-0,085	-0,070	-0,055	-0,067	-0,089	-0,094	-0,088	-0,077	-0,058	-0,033	-0,025	-0,048	-0,084	-0,110	-0,114	-0,106	-0,100	-0,096	-0,082	-0,071	-0,069	-0,063	-0,038	-0,011	0,008	0,005	-0,008	-0,019	-0,041	-0,065	-0,065	-0,049	-0,039	-0,015	0,016	0,046	0,060	0,064	0,059	0,053	0,047	0,047	0,049	0,054	0,065	0,072	0,073	0,073	0,076	0,076	0,076	0,083	0,111	0,153	0,183	0,184	0,173	0,155	0,134	0,113	0,104	0,106	0,120	0,129	0,130	0,129	0,123	0,115	0,105	0,093	0,087	0,089	0,092	0,093	0,091	0,093	0,094	0,092	0,093	0,091	0,095	0,086	0,073	0,069	0,065	0,056	0,059	0,070	0,071	0,057	0,027	0,001	-0,016	-0,025	-0,029	-0,028	-0,022	-0,014	-0,015	-0,023	-0,021	-0,022	-0,037	-0,051	-0,033	-0,004	0,014	0,006	-0,021	-0,054	-0,092	-0,131	-0,154	-0,150	-0,127	-0,098	-0,080	-0,069	-0,051	-0,041	-0,041	-0,043	-0,046	-0,049	-0,066	-0,078	-0,075	-0,067	-0,064	-0,059	-0,059	-0,053	-0,052	-0,053	-0,053	-0,058	-0,058	-0,055	-0,053	-0,044	-0,033	-0,033	-0,037	-0,039	-0,043	-0,051	-0,054	-0,049	-0,065	-0,091	-0,096	-0,083	-0,086	-0,109	-0,143	-0,154	-0,143	-0,118	-0,085	-0,053	-0,036	-0,049	-0,069	-0,070	-0,064	-0,070	-0,093	-0,115	-0,115	-0,108	-0,114	-0,130	-0,135	-0,109	-0,061	-0,038	-0,047	-0,055	-0,056	-0,053	-0,050	-0,048	-0,051	-0,044	-0,034	-0,036	-0,038	-0,038	-0,038	-0,041	-0,041	-0,024	-0,003	0,001	-0,009	-0,024	-0,041	-0,055	-0,049	-0,036	-0,021	-0,002	0,028	0,059	0,081	0,081	0,076	0,063	0,036	0,018	0,021	0,032	0,054	0,087	0,110	0,116	0,113	0,112	0,123	0,138	0,151	0,157	0,151	0,139	0,130	0,124	0,121	0,123	0,113	0,088	0,055	0,036	0,033	0,029	0,028	0,044	0,054	0,041	0,011	-0,009	-0,026	-0,044	-0,064	-0,095	-0,114	-0,113	-0,112	-0,127	-0,155	-0,171	-0,165	-0,150	-0,147	-0,151	-0,148	-0,141	-0,141	-0,150	-0,153	-0,156	-0,152	-0,150	-0,151	-0,160	-0,178	-0,197	-0,196	-0,176	-0,152	-0,148	-0,144	-0,135	-0,138	-0,152	-0,174	-0,184	-0,169	-0,146	-0,134	-0,118	-0,106	-0,110	-0,127	-0,148	-0,159	-0,159	-0,161	-0,167	-0,176	-0,184	-0,191	-0,193	-0,189	-0,179	-0,167	-0,152	-0,139	-0,137	-0,135	-0,138	-0,149	-0,138	-0,106	-0,085	-0,068	-0,053	-0,045	-0,063	-0,097	-0,118	-0,133	-0,152	-0,161	-0,148	-0,131	-0,107	-0,088	-0,078	-0,078	-0,083	-0,075	-0,051	-0,018	0,014	0,058	0,107	0,162	0,223	0,280	0,324	0,375	0,438	0,511	0,585	0,651	0,714	0,767	0,806	0,834	0,853	0,861	0,872	0,884	0,879	0,839	0,740	0,625	0,520	0,420	0,313	0,192	0,079	-0,007	-0,081	-0,166	-0,255	-0,331	-0,391	-0,428	-0,447	-0,456	-0,457	-0,445	-0,411	-0,371	-0,352	-0,343	-0,341	-0,350	-0,340	-0,299	-0,249	-0,218	-0,204	-0,196	-0,190	-0,188	-0,182	-0,176	-0,169	-0,158	-0,144	-0,140	-0,145	-0,145	-0,147	-0,154	-0,159	-0,161	-0,164	-0,171	-0,178	-0,172	-0,154	-0,145	-0,142	-0,135	-0,125	-0,120	-0,114	-0,111	-0,109	-0,105	-0,096	-0,084	-0,076	-0,077	-0,078	-0,101	-0,128	-0,139	-0,130	-0,129	-0,133	-0,127	-0,115	-0,106	-0,098	-0,082	-0,066	-0,062	-0,056	-0,046	-0,046	-0,049	-0,047	-0,060	-0,065	-0,069	-0,084	-0,101	-0,099	-0,071	-0,035	-0,016	-0,017	-0,026	-0,030	-0,019	0,002	0,022	0,038	0,051	0,056	0,056	0,046	0,038	0,035	0,028	0,003	-0,028	-0,047	-0,053	-0,043	-0,011	0,034	0,055	0,048	0,040	0,044	0,053	0,063	0,071	0,080	0,089	0,079	0,061	0,056	0,059	0,071	0,084	0,081	0,066	0,062	0,074	0,092	0,115	0,149	0,180	0,189	0,192	0,202	0,209	0,196	0,176	0,165	0,157	0,148	0,148	0,154	0,166	0,174	0,180	0,189	0,191	0,184	0,181	0,192	0,209	0,232	0,263	0,285	0,282	0,252	0,225	0,231	0,239	0,224	0,207	0,206	0,208	0,200	0,191	0,198	0,210	0,215	0,205	0,186	0,156	0,134	0,132	0,135	0,142	0,139	0,134	0,136	0,139	0,148	0,149	0,139	0,123	0,112	0,100	0,085	0,079	0,089	0,111	0,116	0,103	0,089	0,078	0,074	0,086	0,101	0,098	0,092	0,069	0,044	0,026	0,024	0,028	0,027	0,029	0,030	0,027	0,007	-0,011	-0,007	0,010	0,016	0,012	-0,002	-0,014	-0,021	-0,022	-0,012	-0,002	-0,003	-0,012	-0,014	-0,013	-0,007	-0,001	-0,006	-0,024	-0,037	-0,026	-0,006	0,011	0,028	0,044	0,042	0,015	-0,011	-0,004	0,025	0,031	0,004	-0,037	-0,058	-0,046	-0,023	-0,012	-0,017	-0,023	-0,020	-0,007	0,013	0,033	0,049	0,057	0,050	0,037	0,026	0,004	-0,020	-0,029	-0,027	-0,028	-0,034	-0,049	-0,054	-0,034	-0,015	-0,020	-0,041	-0,047	-0,024	0,002	0,020	0,028	0,031	0,035	0,045	0,045	0,027	0,008	-0,007	-0,013	-0,024	-0,028	-0,019	0,000	0,006	0,006	0,025	0,050	0,060	0,063	0,065	0,055	0,033	0,029	0,043	0,072	0,095	0,102	0,101	0,100	0,105	0,109	0,105	0,104	0,100	0,098	0,101	0,113	0,133	0,144	0,145	0,152	0,162	0,171	0,180	0,182	0,181	0,184	0,185	0,180	0,171	0,158	0,146	0,136	0,133	0,151	0,167	0,172	0,169	0,156	0,140	0,125	0,107	0,095	0,088	0,081	0,064	0,033	0,001	-0,025	-0,038	-0,027	-0,006	-0,008	-0,018	-0,023	-0,030	-0,040	-0,035	-0,039	-0,051	-0,061	-0,074	-0,081	-0,077	-0,069	-0,071	-0,085	-0,104	-0,115	-0,121	-0,125	-0,122	-0,111	-0,099	-0,090	-0,083	-0,089	-0,106	-0,117	-0,116	-0,111	-0,100	-0,085	-0,080	-0,083	-0,091	-0,093	-0,091	-0,094	-0,094	-0,090	-0,085	-0,083	-0,087	-0,086	-0,078	-0,081	-0,097	-0,107	-0,092	-0,065	-0,052	-0,051	-0,055	-0,044	-0,039	-0,048	-0,064	-0,078	-0,088	-0,101	-0,103	-0,110	-0,130	-0,144	-0,127	-0,089	-0,063	-0,052	-0,047	-0,036	-0,028	-0,028	-0,024	-0,011	0,008	0,029	0,045	0,066	0,094	0,135	0,196	0,257	0,310	0,372	0,437	0,490	0,538	0,587	0,619	0,653	0,708	0,773	0,828	0,871	0,890	0,892	0,885	0,864	0,830	0,769	0,678	0,550	0,411	0,283	0,168	0,088	0,029	-0,035	-0,109	-0,168	-0,201	-0,234	-0,288	-0,351	-0,401	-0,425	-0,432	-0,422	-0,382	-0,331	-0,281	-0,243	-0,221	-0,208	-0,183	-0,158	-0,146	-0,139	-0,129	-0,125	-0,121	-0,116	-0,112	-0,103	-0,101	-0,107	-0,115	-0,125	-0,133	-0,137	-0,133	-0,132	-0,137	-0,137	-0,123	-0,109	-0,100	-0,096	-0,097	-0,091	-0,084	-0,072	-0,071	-0,079	-0,082	-0,075	-0,058	-0,048	-0,061	-0,078	-0,082	-0,087	-0,098	-0,100	-0,083	-0,053	-0,028	-0,019	-0,042	-0,066	-0,074	-0,079	-0,079	-0,065	-0,025	0,042	0,091	0,091	0,048	-0,007	-0,043	-0,056	-0,053	-0,040	-0,035	-0,035	-0,021	0,007	0,039	0,059	0,063	0,069	0,082	0,099	0,095	0,072	0,055	0,027	-0,007	-0,022	-0,014	0,003	0,016	0,026	0,042	0,071	0,090	0,096	0,079	0,058	0,063	0,106	0,147	0,156	0,141	0,114	0,092	0,075	0,063	0,063	0,071	0,070	0,064	0,069	0,081	0,093	0,120	0,162	0,192	0,207	0,212	0,220	0,228	0,227	0,215	0,198	0,185	0,185	0,203	0,217	0,220	0,220	0,219	0,220	0,233	0,244	0,245	0,245	0,225	0,210	0,225	0,260	0,285	0,288	0,286	0,276	0,267	0,243	0,214	0,204	0,216	0,240	0,273	0,293	0,282	0,250	0,218	0,213	0,223	0,227	0,228	0,232	0,224	0,201	0,183	0,171	0,162	0,138	0,100	0,067	0,058	0,077	0,103	0,110	0,102	0,086	0,078	0,078	0,078	0,071	0,077	0,102	0,129	0,139	0,123	0,105	0,106	0,112	0,107	0,079	0,038	0,004	-0,014	-0,022	-0,017	-0,006	-0,006	-0,013	-0,013	-0,002	0,009	0,024	0,039	0,053	0,055	0,042	0,045	0,056	0,057	0,043	0,025	0,013	0,012	0,019	0,035	0,049	0,046	0,038	0,034	0,028	0,018	0,014	0,009	0,001	-0,007	-0,019	-0,014	-0,001	0,006	0,004	0,001	-0,007	-0,011	-0,001	0,014	0,010	-0,006	-0,011	0,002	0,021	0,027	0,022	0,013	0,009	0,011	0,003	-0,004	-0,020	-0,044	-0,058	-0,048	-0,031	-0,021	-0,033	-0,058	-0,065	-0,061	-0,055	-0,059	-0,074	-0,082	-0,074	-0,050	-0,025	-0,005	0,010	0,019	0,023	0,017	0,015	0,028	0,044	0,043	0,028	0,014	0,006	-0,009	-0,028	-0,039	-0,026	0,011	0,052	0,086	0,101	0,092	0,083	0,082	0,094	0,099	0,090	0,074	0,063	0,067	0,072	0,080	0,097	0,110	0,129	0,164	0,190	0,197	0,181	0,160	0,158	0,162	0,167	0,165	0,168	0,167	0,166	0,185	0,207	0,224	0,231	0,239	0,242	0,231	0,206	0,183	0,181	0,198	0,195	0,173	0,153	0,133	0,110	0,085	0,051	0,006	-0,038	-0,054	-0,043	-0,029	-0,025	-0,022	-0,019	-0,015	-0,017	-0,027	-0,033	-0,031	-0,039	-0,055	-0,066	-0,078	-0,092	-0,098	-0,093	-0,095	-0,107	-0,111	-0,105	-0,108	-0,115	-0,122	-0,123	-0,116	-0,090	-0,042	-0,004	-0,017	-0,065	-0,108	-0,135	-0,150	-0,149	-0,147	-0,131	-0,107	-0,088	-0,075	-0,077	-0,090	-0,099	-0,098	-0,100	-0,099	-0,100	-0,101	-0,091	-0,083	-0,077	-0,073	-0,071	-0,068	-0,071	-0,082	-0,082	-0,077	-0,080	-0,089	-0,094	-0,093	-0,089	-0,076	-0,054	-0,027	-0,013	-0,015	-0,026	-0,027	-0,019	-0,023	-0,039	-0,063	-0,078	-0,080	-0,086	-0,096	-0,093	-0,086	-0,060	-0,006	0,064	0,130	0,162	0,167	0,195	0,255	0,329	0,411	0,480	0,519	0,552	0,597	0,641	0,678	0,713	0,758	0,805	0,827	0,830	0,822	0,821	0,833	0,819	0,746	0,617	0,475	0,346	0,231	0,122	0,017	-0,083	-0,177	-0,265	-0,344	-0,399	-0,433	-0,460	-0,460	-0,439	-0,416	-0,391	-0,364	-0,334	-0,307	-0,291	-0,279	-0,243	-0,211	-0,193	-0,178	-0,173	-0,173	-0,178	-0,181	-0,182	-0,182	-0,177	-0,163	-0,153	-0,140	-0,125	-0,110	-0,094	-0,082	-0,074	-0,070	-0,074	-0,087	-0,103	-0,116	-0,120	-0,106	-0,090	-0,085	-0,089	-0,114	-0,139	-0,131	-0,115	-0,119	-0,126	-0,114	-0,083	-0,060	-0,058	-0,058	-0,045	-0,032	-0,018	-0,004	0,011	0,030	0,043	0,033	0,005	-0,037	-0,078	-0,094	-0,074	-0,038	-0,015	-0,012	-0,016	-0,019	-0,021	-0,023	-0,021	-0,024	-0,030	-0,036	-0,038	-0,042	-0,051	-0,060	-0,061	-0,049	-0,035	-0,022	-0,006	0,003	0,017	0,047	0,078	0,098	0,105	0,108	0,105	0,089	0,079	0,089	0,107	0,119	0,114	0,095	0,061	0,031	0,025	0,039	0,055	0,065	0,068	0,067	0,062	0,056	0,074	0,128	0,178	0,211	0,242	0,254	0,246	0,212	0,165	0,130	0,120	0,129	0,138	0,146	0,152	0,157	0,164	0,176	0,202	0,231	0,247	0,254	0,254	0,253	0,251	0,242	0,233	0,223	0,218	0,213	0,210	0,215	0,222	0,225	0,224	0,220	0,218	0,227	0,237	0,245	0,246	0,245	0,240	0,230	0,212	0,199	0,183	0,167	0,146	0,132	0,124	0,129	0,134	0,145	0,151	0,147	0,137	0,132	0,137	0,138	0,142	0,146	0,158	0,168	0,163	0,154	0,146	0,127	0,108	0,099	0,089	0,074	0,054	0,022	-0,011	-0,033	-0,031	-0,008	0,007	0,001	-0,016	-0,017	-0,010	-0,011	-0,013	-0,006	0,009	0,016	0,017	0,017	0,012	0,007	0,011	0,019	0,014	-0,003	-0,013	-0,014	-0,011	-0,005	0,004	0,014	0,027	0,033	0,032	0,021	0,014	0,005	-0,004	0,005	0,022	0,036	0,045	0,030	0,006	-0,006	-0,003	-0,008	-0,025	-0,045	-0,050	-0,036	-0,018	0,001	0,016	0,019	0,028	0,031	0,003	-0,035	-0,060	-0,068	-0,063	-0,049	-0,034	-0,018	-0,007	-0,001	0,010	0,023	0,042	0,045	0,031	0,015	0,015	0,016	0,008	-0,006	-0,021	-0,035	-0,051	-0,051	-0,028	-0,002	0,012	0,018	0,016	0,006	-0,006	-0,018	-0,007	0,024	0,049	0,056	0,041	0,032	0,046	0,064	0,068	0,066	0,057	0,044	0,043	0,059	0,068	0,061	0,054	0,058	0,055	0,046	0,043	0,054	0,078	0,107	0,134	0,153	0,167	0,182	0,181	0,171	0,160	0,149	0,140	0,136	0,139	0,151	0,166	0,189	0,200	0,191	0,181	0,183	0,190	0,197	0,206	0,211	0,200	0,179	0,154	0,134	0,120	0,107	0,096	0,089	0,074	0,058	0,037	0,010	-0,010	-0,019	-0,010	-0,006	-0,019	-0,033	-0,043	-0,039	-0,026	-0,026	-0,051	-0,089	-0,129	-0,156	-0,162	-0,158	-0,151	-0,139	-0,123	-0,108	-0,095	-0,083	-0,073	-0,068	-0,059	-0,059	-0,077	-0,097	-0,121	-0,147	-0,150	-0,142	-0,138	-0,139	-0,141	-0,147	-0,147	-0,128	-0,104	-0,093	-0,081	-0,072	-0,091	-0,118	-0,132	-0,133	-0,119	-0,105	-0,102	-0,108	-0,115	-0,123	-0,122	-0,115	-0,105	-0,089	-0,070	-0,060	-0,058	-0,064	-0,070	-0,069	-0,060	-0,049	-0,045	-0,055	-0,075	-0,088	-0,102	-0,113	-0,117	-0,112	-0,096	-0,076	-0,059	-0,030	0,004	0,007	-0,027	-0,058	-0,065	-0,059	-0,043	-0,008	0,046	0,089	0,119	0,160	0,214	0,266	0,315	0,354	0,394	0,466	0,562	0,651	0,718	0,757	0,785	0,820	0,856	0,889	0,902	0,898	0,889	0,858	0,784	0,678	0,548	0,409	0,280	0,158	0,051	-0,056	-0,165	-0,256	-0,319	-0,375	-0,418	-0,437	-0,449	-0,442	-0,421	-0,393	-0,355	-0,326	-0,313	-0,286	-0,255	-0,233	-0,209	-0,185	-0,167	-0,160	-0,164	-0,169	-0,169	-0,165	-0,164	-0,161	-0,162	-0,165	-0,164	-0,151	-0,127	-0,112	-0,107	-0,090	-0,067	-0,055	-0,063	-0,089	-0,112	-0,111	-0,097	-0,089	-0,090	-0,106	-0,128	-0,131	-0,117	-0,093	-0,067	-0,045	-0,029	-0,017	-0,019	-0,017	-0,013	-0,017	-0,028	-0,038	-0,046	-0,055	-0,058	-0,062	-0,074	-0,067	-0,049	-0,037	-0,028	-0,019	-0,016	-0,026	-0,037	-0,031	-0,013	-0,003	0,005	0,011	0,014	0,013	0,012	0,010	0,009	0,008	0,004	0,006	0,035	0,063	0,053	0,028	0,014	0,009	0,013	0,026	0,045	0,066	0,075	0,074	0,055	0,031	0,004	-0,024	-0,043	-0,037	-0,009	0,019	0,052	0,086	0,112	0,128	0,132	0,128	0,129	0,115	0,104	0,114	0,124	0,126	0,124	0,123	0,122	0,125	0,135	0,144	0,146	0,144	0,141	0,157	0,185	0,204	0,213	0,229	0,238	0,230	0,222	0,222	0,230	0,233	0,230	0,230	0,226	0,207	0,185	0,181	0,193	0,215	0,220	0,214	0,222	0,247	0,279	0,310	0,331	0,331	0,322	0,321	0,310	0,280	0,249	0,223	0,209	0,196	0,180	0,174	0,189	0,231	0,258	0,255	0,227	0,202	0,195	0,201	0,213	0,216	0,205	0,197	0,195	0,188	0,165	0,136	0,105	0,098	0,108	0,116	0,118	0,122	0,128	0,132	0,130	0,121	0,111	0,092	0,074	0,066	0,082	0,114	0,136	0,139	0,120	0,092	0,071	0,056	0,041	0,030	0,024	0,018	0,016	0,017	0,031	0,052	0,063	0,074	0,085	0,087	0,085	0,078	0,078	0,075	0,077	0,087	0,083	0,064	0,036	0,012	0,008	0,012	0,020	0,029	0,039	0,038	0,024	0,021	0,033	0,032	0,022	0,024	0,037	0,050	0,065	0,080	0,069	0,045	0,020	-0,006	-0,021	-0,018	-0,022	-0,015	0,006	0,018	0,008	-0,004	-0,010	-0,005	0,002	0,001	-0,003	-0,005	-0,011	-0,008	0,010	0,021	0,020	0,015	0,015	0,010	-0,001	-0,019	-0,020	0,000	0,008	0,015	0,024	0,037	0,052	0,077	0,103	0,105	0,094	0,079	0,062	0,045	0,037	0,047	0,056	0,056	0,051	0,066	0,075	0,073	0,084	0,107	0,126	0,128	0,128	0,133	0,129	0,123	0,117	0,126	0,132	0,124	0,113	0,114	0,140	0,180	0,206	0,220	0,225	0,221	0,212	0,207	0,225	0,250	0,266	0,276	0,272	0,263	0,249	0,224	0,182	0,147	0,140	0,156	0,149	0,103	0,072	0,049	0,037	0,040	0,054	0,066	0,064	0,042	0,022	0,008	-0,005	-0,018	-0,024	-0,035	-0,055	-0,075	-0,088	-0,104	-0,112	-0,110	-0,105	-0,104	-0,104	-0,088	-0,061	-0,050	-0,058	-0,064	-0,069	-0,069	-0,072	-0,073	-0,074	-0,077	-0,077	-0,087	-0,108	-0,126	-0,131	-0,132	-0,130	-0,117	-0,098	-0,087	-0,076	-0,065	-0,065	-0,072	-0,075	-0,067	-0,056	-0,051	-0,050	-0,053	-0,066	-0,079	-0,089	-0,103	-0,116	-0,107	-0,081	-0,053	-0,049	-0,060	-0,061	-0,052	-0,036	-0,035	-0,061	-0,086	-0,096	-0,095	-0,092	-0,080	-0,062	-0,049	-0,055	-0,075	-0,092	-0,088	-0,066	-0,035	-0,012	-0,001	0,001	-0,006	-0,006	0,007	0,031	0,065	0,096	0,115	0,162	0,235	0,310	0,391	0,469	0,525	0,575	0,620	0,653	0,700	0,761	0,810	0,860	0,898	0,919	0,937	0,949	0,937	0,893	0,818	0,715	0,583	0,450	0,324	0,200	0,089	-0,014	-0,118	-0,219	-0,300	-0,352	-0,374	-0,380	-0,374	-0,369	-0,358	-0,343	-0,336	-0,325	-0,290	-0,247	-0,215	-0,195	-0,185	-0,178	-0,169	-0,154	-0,135	-0,124	-0,114	-0,109	-0,110	-0,103	-0,089	-0,086	-0,083	-0,072	-0,065	-0,062	-0,058	-0,051	-0,046	-0,049	-0,067	-0,085	-0,091	-0,101	-0,121	-0,133	-0,133	-0,118	-0,099	-0,065	-0,027	-0,003	-0,009	-0,037	-0,070	-0,096	-0,093	-0,066	-0,052	-0,052	-0,060	-0,065	-0,065	-0,065	-0,060	-0,050	-0,045	-0,056	-0,066	-0,072	-0,072	-0,061	-0,043	-0,030	-0,024	-0,026	-0,030	-0,023	-0,015	-0,017	-0,006	0,032	0,069	0,080	0,075	0,069	0,072	0,080	0,078	0,067	0,054	0,058	0,070	0,070	0,063	0,058	0,060	0,074	0,084	0,074	0,050	0,035	0,053	0,079	0,071	0,036	0,017	0,032	0,053	0,077	0,095	0,103	0,106	0,119	0,130	0,137	0,138	0,135	0,141	0,145	0,140	0,136	0,138	0,137	0,136	0,150	0,170	0,181	0,185	0,180	0,170	0,171	0,188	0,209	0,220	0,226	0,226	0,218	0,219	0,225	0,231	0,223	0,214	0,216	0,238	0,262	0,277	0,287	0,287	0,283	0,278	0,282	0,296	0,299	0,293	0,282	0,267	0,256	0,246	0,238	0,232	0,225	0,217	0,207	0,218	0,252	0,278	0,278	0,265	0,246	0,229	0,211	0,205	0,207	0,205	0,184	0,172	0,185	0,205	0,205	0,190	0,166	0,146	0,131	0,116	0,108	0,101	0,101	0,111	0,129	0,144	0,153	0,155	0,144	0,129	0,115	0,103	0,105	0,103	0,083	0,063	0,041	0,024	0,012	0,010	0,023	0,050	0,066	0,073	0,075	0,065	0,056	0,053	0,065	0,073	0,064	0,043	0,023	0,011	0,005	-0,001	0,001	0,021	0,051	0,074	0,091	0,106	0,115	0,100	0,071	0,050	0,051	0,065	0,082	0,091	0,092	0,081	0,051	0,020	-0,006	-0,020	-0,015	-0,008	-0,008	-0,011	-0,015	-0,011	-0,001	0,008	0,013	0,018	0,029	0,048	0,063	0,066	0,055	0,035	0,011	-0,009	-0,016	0,008	0,029	0,021	-0,006	-0,016	-0,012	-0,008	-0,004	-0,000	0,005	0,010	0,021	0,026	0,029	0,032	0,039	0,036	0,035	0,047	0,073	0,096	0,096	0,080	0,055	0,040	0,042	0,050	0,062	0,079	0,087	0,076	0,061	0,055	0,066	0,100	0,134	0,147	0,135	0,117	0,105	0,102	0,113	0,127	0,128	0,127	0,130	0,137	0,144	0,156	0,186	0,217	0,224	0,214	0,209	0,216	0,232	0,249	0,256	0,254	0,240	0,225	0,217	0,202	0,184	0,193	0,209	0,214	0,202	0,179	0,155	0,140	0,138	0,141	0,142	0,135	0,125	0,117	0,099	0,073	0,050	0,045	0,034	0,010	-0,026	-0,064	-0,093	-0,102	-0,098	-0,088	-0,083	-0,080	-0,082	-0,089	-0,094	-0,099	-0,095	-0,095	-0,100	-0,104	-0,104	-0,107	-0,113	-0,122	-0,113	-0,091	-0,079	-0,081	-0,097	-0,108	-0,089	-0,050	-0,016	-0,003	-0,017	-0,038	-0,053	-0,059	-0,064	-0,066	-0,068	-0,081	-0,098	-0,120	-0,134	-0,133	-0,119	-0,098	-0,075	-0,059	-0,053	-0,049	-0,038	-0,029	-0,025	-0,036	-0,049	-0,053	-0,053	-0,047	-0,045	-0,039	-0,027	-0,033	-0,046	-0,059	-0,081	-0,092	-0,084	-0,070	-0,065	-0,066	-0,065	-0,058	-0,048	-0,038	-0,035	-0,037	-0,041	-0,042	-0,029	-0,007	0,016	0,031	0,041	0,051	0,069	0,105	0,175	0,253	0,320	0,383	0,434	0,477	0,527	0,581	0,636	0,686	0,727	0,759	0,780	0,795	0,799	0,804	0,817	0,836	0,835	0,789	0,705	0,601	0,492	0,390	0,304	0,212	0,106	-0,008	-0,116	-0,212	-0,284	-0,332	-0,375	-0,403	-0,400	-0,394	-0,394	-0,395	-0,385	-0,359	-0,327	-0,294	-0,268	-0,244	-0,226	-0,216	-0,209	-0,195	-0,162	-0,117	-0,088	-0,094	-0,127	-0,154	-0,163	-0,157	-0,144	-0,131	-0,128	-0,120	-0,106	-0,094	-0,085	-0,071	-0,059	-0,055	-0,060	-0,078	-0,087	-0,095	-0,092	-0,070	-0,038	-0,014	-0,002	-0,003	-0,017	-0,036	-0,057	-0,080	-0,097	-0,103	-0,099	-0,098	-0,097	-0,087	-0,072	-0,058	-0,047	-0,038	-0,032	-0,023	-0,024	-0,045	-0,058	-0,058	-0,055	-0,056	-0,056	-0,049	-0,043	-0,034	-0,023	-0,010	0,004	0,015	0,017	0,020	0,030	0,047	0,059	0,058	0,046	0,025	-0,002	-0,020	-0,020	-0,007	0,004	0,004	0,007	0,022	0,039	0,047	0,049	0,045	0,042	0,041	0,046	0,052	0,054	0,048	0,048	0,065	0,079	0,097	0,127	0,138	0,123	0,109	0,112	0,132	0,141	0,132	0,129	0,139	0,160	0,175	0,173	0,160	0,156	0,158	0,161	0,156	0,141	0,125	0,126	0,149	0,168	0,175	0,174	0,180	0,192	0,202	0,204	0,211	0,220	0,221	0,234	0,253	0,259	0,245	0,221	0,214	0,219	0,220	0,214	0,219	0,228	0,232	0,230	0,220	0,210	0,210	0,219	0,226	0,229	0,232	0,231	0,225	0,220	0,205	0,185	0,182	0,175	0,150	0,129	0,131	0,130	0,123	0,121	0,118	0,110	0,095	0,097	0,109	0,120	0,119	0,104	0,092	0,082	0,072	0,064	0,061	0,050	0,030	0,005	-0,016	-0,018	0,002	0,022	0,045	0,067	0,070	0,063	0,049	0,032	0,011	-0,008	-0,016	-0,015	-0,016	-0,011	-0,005	-0,017	-0,032	-0,023	-0,003	0,007	-0,007	-0,005	0,012	0,017	0,010	0,010	0,011	-0,002	-0,012	-0,005	0,006	0,017	0,028	0,025	0,015	0,009	-0,001	-0,020	-0,026	-0,005	0,011	0,005	-0,025	-0,055	-0,062	-0,045	-0,034	-0,024	-0,014	-0,005	0,008	0,012	0,015	0,022	0,019	0,003	-0,023	-0,047	-0,052	-0,050	-0,041	-0,032	-0,029	-0,012	0,012	0,021	0,011	-0,002	-0,015	-0,013	-0,006	-0,005	-0,018	-0,039	-0,054	-0,058	-0,056	-0,050	-0,038	-0,027	-0,013	-0,004	-0,010	-0,027	-0,052	-0,074	-0,082	-0,070	-0,064	-0,057	-0,032	0,001	0,031	0,043	0,049	0,038	0,037	0,052	0,064	0,061	0,055	0,045	0,027	0,031	0,053	0,081	0,100	0,101	0,089	0,089	0,099	0,119	0,129	0,115	0,093	0,082	0,103	0,135	0,160	0,172	0,176	0,174	0,171	0,166	0,154	0,166	0,182	0,189	0,193	0,195	0,187	0,174	0,178	0,189	0,186	0,168	0,143	0,111	0,070	0,040	0,021	-0,000	-0,025	-0,043	-0,050	-0,041	-0,023	-0,012	-0,017	-0,022	-0,013	-0,010	-0,039	-0,097	-0,149	-0,169	-0,181	-0,205	-0,212	-0,206	-0,201	-0,201	-0,198	-0,185	-0,163	-0,135	-0,122	-0,136	-0,158	-0,170	-0,164	-0,160	-0,159	-0,158	-0,161	-0,179	-0,199	-0,197	-0,160	-0,119	-0,093	-0,091	-0,097	-0,121	-0,151	-0,169	-0,164	-0,136	-0,114	-0,105	-0,106	-0,116	-0,126	-0,133	-0,130	-0,129	-0,132	-0,139	-0,154	-0,168	-0,177	-0,181	-0,176	-0,154	-0,135	-0,127	-0,125	-0,124	-0,127	-0,117	-0,087	-0,047	-0,020	-0,037	-0,079	-0,124	-0,151	-0,155	-0,140	-0,114	-0,094	-0,086	-0,091	-0,095	-0,090	-0,077	-0,065	-0,060	-0,053	-0,027	0,019	0,067	0,106	0,142	0,194	0,257	0,326	0,385	0,439	0,489	0,526	0,565	0,624	0,684	0,728	0,773	0,807	0,834	0,852	0,866	0,865	0,818	0,714	0,588	0,459	0,317	0,171	0,036	-0,079	-0,178	-0,271	-0,346	-0,392	-0,435	-0,480	-0,504	-0,487	-0,453	-0,423	-0,399	-0,368	-0,328	-0,301	-0,289	-0,275	-0,271	-0,281	-0,288	-0,285	-0,273	-0,260	-0,248	-0,242	-0,228	-0,206	-0,177	-0,140	-0,102	-0,084	-0,083	-0,087	-0,111	-0,149	-0,187	-0,205	-0,216	-0,220	-0,202	-0,183	-0,167	-0,154	-0,147	-0,128	-0,106	-0,103	-0,123	-0,140	-0,136	-0,119	-0,108	-0,105	-0,117	-0,131	-0,139	-0,143	-0,132	-0,124	-0,131	-0,132	-0,129	-0,111	-0,089	-0,071	-0,057	-0,050	-0,033	-0,015	-0,015	-0,023	-0,033	-0,045	-0,051	-0,042	-0,035	-0,036	-0,037	-0,036	-0,049	-0,068	-0,077	-0,075	-0,070	-0,061	-0,054	-0,038	-0,017	-0,007	-0,003	-0,012	-0,031	-0,045	-0,035	-0,017	-0,005	-0,009	-0,025	-0,040	-0,038	-0,018	-0,007	-0,004	-0,001	0,004	0,026	0,054	0,066	0,059	0,052	0,044	0,030	0,015	0,006	0,018	0,031	0,035	0,031	0,027	0,031	0,045	0,065	0,076	0,085	0,102	0,123	0,142	0,155	0,163	0,182	0,214	0,242	0,247	0,243	0,232	0,213	0,201	0,201	0,193	0,173	0,171	0,177	0,175	0,173	0,172	0,193	0,218	0,235	0,248	0,252	0,255	0,249	0,224	0,192	0,165	0,152	0,146	0,143	0,143	0,137	0,140	0,146	0,150	0,154	0,159	0,161	0,161	0,173	0,181	0,178	0,163	0,145	0,125	0,102	0,076	0,059	0,062	0,069	0,059	0,054	0,053	0,048	0,037	0,025	0,023	0,033	0,043	0,045	0,041	0,032	0,029	0,037	0,042	0,046	0,046	0,031	0,008	-0,014	-0,027	-0,026	-0,012	0,006	0,005	-0,002	-0,005	-0,006	-0,005	-0,001	-0,007	-0,018	-0,022	-0,023	-0,028	-0,043	-0,051	-0,046	-0,040	-0,044	-0,046	-0,049	-0,048	-0,053	-0,046	-0,028	-0,014	-0,007	-0,014	-0,016	-0,009	-0,001	0,003	0,017	0,009	-0,032	-0,072	-0,106	-0,110	-0,094	-0,085	-0,088	-0,103	-0,111	-0,104	-0,095	-0,091	-0,083	-0,067	-0,050	-0,042	-0,033	-0,027	-0,031	-0,039	-0,057	-0,076	-0,073	-0,063	-0,064	-0,073	-0,077	-0,076	-0,070	-0,064	-0,057	-0,046	-0,034	-0,037	-0,047	-0,042	-0,022	0,006	0,014	0,009	-0,000	-0,006	-0,008	-0,015	-0,023	-0,023	-0,026	-0,032	-0,035	-0,028	-0,014	-0,008	0,004	0,019	0,029	0,030	0,025	0,027	0,034	0,040	0,039	0,040	0,039	0,038	0,043	0,050	0,049	0,052	0,065	0,074	0,079	0,091	0,109	0,121	0,121	0,124	0,129	0,137	0,153	0,178	0,201	0,206	0,187	0,158	0,131	0,119	0,116	0,124	0,132	0,133	0,118	0,104	0,098	0,086	0,070	0,056	0,059	0,074	0,083	0,073	0,066	0,059	0,033	-0,014	-0,058	-0,080	-0,096	-0,120	-0,137	-0,154	-0,161	-0,154	-0,149	-0,151	-0,158	-0,162	-0,158	-0,138	-0,126	-0,133	-0,146	-0,162	-0,171	-0,173	-0,164	-0,154	-0,153	-0,163	-0,173	-0,175	-0,154	-0,126	-0,111	-0,114	-0,138	-0,159	-0,166	-0,167	-0,157	-0,154	-0,166	-0,178	-0,176	-0,164	-0,154	-0,159	-0,170	-0,172	-0,169	-0,163	-0,145	-0,137	-0,133	-0,128	-0,118	-0,105	-0,105	-0,113	-0,125	-0,134	-0,149	-0,156	-0,162	-0,180	-0,200	-0,202	-0,189	-0,172	-0,146	-0,131	-0,140	-0,162	-0,171	-0,165	-0,159	-0,155	-0,146	-0,134	-0,135	-0,130	-0,121	-0,114	-0,124	-0,141	-0,152	-0,150	-0,123	-0,074	-0,012	0,053	0,112	0,157	0,196	0,238	0,284	0,331	0,369	0,423	0,503	0,574	0,620	0,672	0,727	0,758	0,765	0,764	0,757	0,754	0,754	0,735	0,689	0,614	0,500	0,372	0,240	0,113	-0,019	-0,153	-0,281	-0,371	-0,438	-0,497	-0,528	-0,529	-0,527	-0,527	-0,526	-0,521	-0,502	-0,472	-0,438	-0,408	-0,378	-0,346	-0,319	-0,300	-0,286	-0,278	-0,269	-0,259	-0,248	-0,231	-0,216	-0,216	-0,223	-0,225	-0,216	-0,213	-0,236	-0,263	-0,272	-0,261	-0,232	-0,203	-0,190	-0,189	-0,191	-0,185	-0,172	-0,174	-0,190	-0,201	-0,210	-0,214	-0,211	-0,204	-0,200	-0,199	-0,191	-0,185	-0,188	-0,196	-0,195	-0,173	-0,153	-0,137	-0,124	-0,108	-0,101	-0,107	-0,122	-0,146	-0,174	-0,200	-0,225	-0,236	-0,229	-0,210	-0,182	-0,145	-0,109	-0,089	-0,086	-0,087	-0,082	-0,080	-0,089	-0,100	-0,104	-0,104	-0,110	-0,118	-0,123	-0,119	-0,090	-0,052	-0,047	-0,065	-0,085	-0,108	-0,125	-0,131	-0,112	-0,079	-0,038	-0,016	-0,016	-0,028	-0,044	-0,052	-0,048	-0,053	-0,079	-0,107	-0,116	-0,105	-0,076	-0,060	-0,059	-0,059	-0,055	-0,045	-0,030	-0,004	0,024	0,040	0,046	0,046	0,026	-0,008	-0,026	-0,024	0,001	0,027	0,048	0,045	0,033	0,023	0,019	0,021	0,029	0,043	0,057	0,063	0,081	0,101	0,094	0,074	0,066	0,081	0,109	0,124	0,129	0,125	0,112	0,103	0,100	0,096	0,085	0,070	0,060	0,067	0,092	0,112	0,115	0,120	0,121	0,107	0,084	0,084	0,103	0,112	0,093	0,076	0,078	0,092	0,086	0,062	0,035	0,011	-0,002	-0,002	-0,005	-0,015	-0,020	-0,018	-0,016	-0,014	-0,024	-0,035	-0,027	-0,007	0,001	-0,009	-0,032	-0,055	-0,055	-0,039	-0,031	-0,028	-0,025	-0,025	-0,033	-0,045	-0,057	-0,070	-0,082	-0,095	-0,107	-0,118	-0,127	-0,127	-0,119	-0,113	-0,113	-0,120	-0,138	-0,149	-0,146	-0,133	-0,118	-0,113	-0,112	-0,106	-0,107	-0,114	-0,109	-0,098	-0,097	-0,094	-0,096	-0,099	-0,108	-0,128	-0,144	-0,153	-0,153	-0,145	-0,147	-0,144	-0,137	-0,131	-0,130	-0,115	-0,094	-0,093	-0,111	-0,130	-0,137	-0,143	-0,156	-0,173	-0,188	-0,203	-0,220	-0,218	-0,210	-0,210	-0,199	-0,176	-0,159	-0,155	-0,158	-0,160	-0,167	-0,169	-0,161	-0,150	-0,134	-0,120	-0,116	-0,120	-0,129	-0,143	-0,162	-0,172	-0,169	-0,164	-0,168	-0,175	-0,175	-0,182	-0,183	-0,176	-0,152	-0,121	-0,112	-0,112	-0,105	-0,095	-0,081	-0,062	-0,053	-0,075	-0,105	-0,115	-0,122	-0,121	-0,104	-0,080	-0,055	-0,051	-0,058	-0,069	-0,070	-0,057	-0,047	-0,040	-0,024	-0,010	0,001	0,003	-0,014	-0,037	-0,050	-0,043	-0,023	0,002	0,023	0,035	0,038	0,035	0,035	0,037	0,033	0,018	0,010	0,027	0,043	0,050	0,045	0,026	0,015	0,007	-0,013	-0,040	-0,064	-0,072	-0,069	-0,067	-0,079	-0,104	-0,132	-0,142	-0,143	-0,147	-0,152	-0,154	-0,161	-0,178	-0,195	-0,216	-0,240	-0,270	-0,303	-0,341	-0,357	-0,325	-0,261	-0,223	-0,225	-0,249	-0,256	-0,243	-0,226	-0,223	-0,234	-0,243	-0,249	-0,258	-0,269	-0,268	-0,254	-0,247	-0,250	-0,259	-0,267	-0,269	-0,266	-0,274	-0,288	-0,294	-0,282	-0,261	-0,242	-0,224	-0,202	-0,188	-0,194	-0,213	-0,240	-0,264	-0,283	-0,286	-0,267	-0,241	-0,216	-0,190	-0,184	-0,193	-0,202	-0,209	-0,211	-0,217	-0,221	-0,229	-0,230	-0,225	-0,215	-0,208	-0,215	-0,228	-0,235	-0,242	-0,245	-0,236	-0,232	-0,231	-0,226	-0,229	-0,233	-0,226	-0,204	-0,185	-0,177	-0,167	-0,137	-0,085	-0,026	0,025	0,058	0,084	0,127	0,176	0,215	0,249	0,311	0,378	0,438	0,497	0,573	0,644	0,696	0,727	0,737	0,736	0,734	0,724	0,683	0,605	0,495	0,366	0,225	0,079	-0,047	-0,146	-0,246	-0,322	-0,373	-0,418	-0,457	-0,485	-0,501	-0,522	-0,529	-0,509	-0,480	-0,472	-0,479	-0,489	-0,479	-0,440	-0,397	-0,371	-0,366	-0,373	-0,363	-0,331	-0,301	-0,282	-0,268	-0,255	-0,260	-0,283	-0,308	-0,323	-0,325	-0,318	-0,303	-0,285	-0,281	-0,275	-0,254	-0,252	-0,271	-0,294	-0,300	-0,295	-0,282	-0,266	-0,253	-0,252	-0,263	-0,263	-0,253	-0,236	-0,229	-0,234	-0,237	-0,239	-0,238	-0,234	-0,235	-0,240	-0,236	-0,213	-0,196	-0,193	-0,197	-0,195	-0,190	-0,181	-0,176	-0,180	-0,189	-0,187	-0,177	-0,168	-0,169	-0,180	-0,192	-0,195	-0,184	-0,180	-0,183	-0,190	-0,188	-0,192	-0,202	-0,194	-0,177	-0,162	-0,147	-0,132	-0,110	-0,086	-0,072	-0,078	-0,088	-0,082	-0,073	-0,079	-0,087	-0,104	-0,119	-0,127	-0,127	-0,116	-0,097	-0,077	-0,075	-0,077	-0,082	-0,088	-0,084	-0,065	-0,056	-0,052	-0,056	-0,066	-0,076	-0,083	-0,059	-0,008	0,026	0,016	-0,010	-0,017	-0,007	0,006	0,019	0,033	0,048	0,064	0,071	0,074	0,073	0,063	0,052	0,044	0,048	0,059	0,071	0,069	0,062	0,057	0,055	0,070	0,083	0,075	0,059	0,059	0,081	0,098	0,104	0,121	0,135	0,126	0,096	0,075	0,068	0,072	0,073	0,063	0,056	0,054	0,055	0,049	0,037	0,023	0,028	0,036	0,041	0,043	0,037	0,029	0,025	0,016	0,007	0,007	0,015	0,020	0,024	0,023	0,010	-0,012	-0,030	-0,046	-0,059	-0,069	-0,081	-0,089	-0,098	-0,103	-0,115	-0,135	-0,129	-0,094	-0,065	-0,050	-0,042	-0,053	-0,072	-0,086	-0,094	-0,104	-0,103	-0,093	-0,091	-0,091	-0,081	-0,077	-0,083	-0,088	-0,086	-0,085	-0,096	-0,103	-0,096	-0,087	-0,093	-0,113	-0,135	-0,151	-0,162	-0,183	-0,210	-0,226	-0,230	-0,216	-0,192	-0,175	-0,165	-0,160	-0,159	-0,154	-0,149	-0,147	-0,135	-0,121	-0,114	-0,122	-0,134	-0,142	-0,127	-0,110	-0,103	-0,102	-0,106	-0,105	-0,127	-0,165	-0,191	-0,204	-0,212	-0,201	-0,182	-0,178	-0,184	-0,172	-0,144	-0,118	-0,103	-0,102	-0,108	-0,116	-0,122	-0,134	-0,139	-0,135	-0,128	-0,129	-0,137	-0,148	-0,158	-0,164	-0,158	-0,131	-0,101	-0,090	-0,102	-0,123	-0,139	-0,148	-0,144	-0,136	-0,129	-0,116	-0,106	-0,097	-0,092	-0,096	-0,103	-0,100	-0,080	-0,059	-0,053	-0,055	-0,050	-0,042	-0,042	-0,052	-0,061	-0,068	-0,083	-0,100	-0,099	-0,085	-0,059	-0,024	0,006	0,018	0,021	0,028	0,037	0,057	0,073	0,078	0,075	0,066	0,063	0,067	0,076	0,082	0,081	0,072	0,049	0,024	0,012	0,014	0,021	0,026	0,032	0,038	0,036	0,019	0,002	-0,006	-0,023	-0,059	-0,088	-0,113	-0,142	-0,160	-0,168	-0,155	-0,136	-0,134	-0,141	-0,150	-0,167	-0,187	-0,198	-0,191	-0,177	-0,174	-0,187	-0,199	-0,211	-0,223	-0,224	-0,230	-0,228	-0,217	-0,217	-0,226	-0,230	-0,231	-0,238	-0,243	-0,248	-0,257	-0,262	-0,271	-0,285	-0,282	-0,248	-0,199	-0,167	-0,150	-0,136	-0,126	-0,127	-0,148	-0,172	-0,196	-0,214	-0,222	-0,212	-0,199	-0,189	-0,185	-0,190	-0,194	-0,196	-0,200	-0,203	-0,198	-0,194	-0,191	-0,194	-0,214	-0,233	-0,239	-0,230	-0,193	-0,154	-0,143	-0,155	-0,162	-0,159	-0,161	-0,171	-0,176	-0,178	-0,176	-0,172	-0,172	-0,163	-0,152	-0,155	-0,169	-0,166	-0,150	-0,141	-0,141	-0,147	-0,152	-0,130	-0,101	-0,058	-0,018	0,023	0,071	0,138	0,220	0,299	0,367	0,427	0,474	0,513	0,555	0,605	0,652	0,671	0,663	0,667	0,693	0,716	0,724	0,706	0,654	0,575	0,475	0,367	0,256	0,148	0,042	-0,071	-0,185	-0,294	-0,385	-0,448	-0,487	-0,519	-0,533	-0,508	-0,476	-0,455	-0,434	-0,406	-0,372	-0,328	-0,275	-0,234	-0,211	-0,203	-0,221	-0,241	-0,249	-0,245	-0,223	-0,191	-0,177	-0,197	-0,234	-0,250	-0,234	-0,205	-0,184	-0,172	-0,176	-0,184	-0,180	-0,165	-0,147	-0,145	-0,156	-0,173	-0,190	-0,204	-0,209	-0,203	-0,175	-0,148	-0,138	-0,133	-0,133	-0,140	-0,153	-0,150	-0,146	-0,146	-0,141	-0,131	-0,119	-0,107	-0,092	-0,083	-0,087	-0,090	-0,087	-0,088	-0,089	-0,090	-0,092	-0,090	-0,093	-0,097	-0,101	-0,100	-0,084	-0,057	-0,034	-0,025	-0,027	-0,031	-0,031	-0,044	-0,056	-0,064	-0,059	-0,049	-0,038	-0,009	0,016	0,025	0,019	0,011	0,010	0,020	0,023	0,016	0,005	0,001	0,016	0,040	0,056	0,058	0,045	0,025	-0,008	-0,039	-0,042	-0,011	0,031	0,061	0,073	0,067	0,058	0,064	0,084	0,095	0,095	0,092	0,094	0,101	0,100	0,094	0,109	0,151	0,208	0,240	0,219	0,179	0,137	0,098	0,086	0,099	0,134	0,177	0,211	0,231	0,242	0,243	0,234	0,221	0,216	0,218	0,221	0,222	0,223	0,226	0,234	0,245	0,243	0,245	0,249	0,250	0,249	0,243	0,239	0,244	0,255	0,264	0,259	0,248	0,236	0,231	0,228	0,227	0,212	0,189	0,161	0,134	0,116	0,111	0,111	0,108	0,105	0,115	0,131	0,146	0,164	0,180	0,177	0,155	0,125	0,113	0,103	0,088	0,075	0,064	0,048	0,040	0,032	0,033	0,041	0,036	0,021	0,024	0,028	0,030	0,040	0,048	0,043	0,031	0,020	0,019	0,023	0,033	0,030	0,008	-0,019	-0,039	-0,047	-0,033	-0,002	0,027	0,044	0,040	0,038	0,032	0,018	0,014	0,012	0,010	0,030	0,041	0,034	0,019	0,008	-0,000	-0,013	-0,016	-0,013	-0,022	-0,038	-0,046	-0,042	-0,029	0,000	0,029	0,045	0,043	0,045	0,047	0,036	0,014	-0,008	-0,004	0,013	0,022	0,007	-0,018	-0,031	-0,033	-0,037	-0,037	-0,028	-0,029	-0,040	-0,035	-0,011	0,017	0,033	0,032	0,024	0,017	0,011	0,007	0,001	-0,011	-0,023	-0,022	-0,012	-0,004	0,006	0,018	0,018	-0,001	-0,012	-0,012	-0,006	-0,004	-0,003	0,020	0,050	0,072	0,085	0,083	0,069	0,058	0,054	0,050	0,043	0,038	0,044	0,040	0,039	0,046	0,056	0,062	0,071	0,088	0,103	0,114	0,115	0,110	0,113	0,133	0,150	0,140	0,124	0,129	0,147	0,150	0,144	0,145	0,169	0,208	0,244	0,261	0,258	0,252	0,249	0,236	0,206	0,172	0,141	0,122	0,124	0,140	0,163	0,190	0,197	0,182	0,159	0,139	0,119	0,112	0,113	0,115	0,100	0,070	0,023	-0,029	-0,059	-0,058	-0,028	0,003	0,012	-0,003	-0,036	-0,074	-0,098	-0,098	-0,094	-0,095	-0,098	-0,103	-0,112	-0,114	-0,114	-0,115	-0,119	-0,122	-0,121	-0,116	-0,115	-0,116	-0,119	-0,125	-0,126	-0,127	-0,130	-0,124	-0,114	-0,119	-0,119	-0,089	-0,057	-0,042	-0,042	-0,047	-0,054	-0,053	-0,048	-0,055	-0,069	-0,080	-0,079	-0,072	-0,071	-0,076	-0,081	-0,086	-0,084	-0,072	-0,063	-0,057	-0,049	-0,047	-0,058	-0,084	-0,088	-0,053	-0,013	0,004	0,009	0,001	-0,025	-0,062	-0,081	-0,090	-0,099	-0,102	-0,093	-0,082	-0,076	-0,072	-0,071	-0,065	-0,047	-0,021	-0,005	0,003	0,015	0,028	0,049	0,080	0,114	0,155	0,196	0,216	0,247	0,338	0,447	0,509	0,519	0,520	0,529	0,568	0,634	0,699	0,746	0,785	0,821	0,861	0,897	0,909	0,893	0,831	0,737	0,624	0,508	0,391	0,271	0,149	0,032	-0,066	-0,149	-0,222	-0,280	-0,324	-0,361	-0,379	-0,375	-0,360	-0,350	-0,351	-0,348	-0,343	-0,329	-0,304	-0,271	-0,239	-0,208	-0,187	-0,181	-0,181	-0,183	-0,185	-0,182	-0,168	-0,153	-0,136	-0,117	-0,089	-0,064	-0,050	-0,051	-0,062	-0,073	-0,086	-0,089	-0,095	-0,098	-0,090	-0,079	-0,068	-0,062	-0,051	-0,042	-0,034	-0,025	-0,014	-0,004	-0,006	-0,028	-0,052	-0,074	-0,089	-0,094	-0,102	-0,106	-0,099	-0,085	-0,076	-0,071	-0,061	-0,044	-0,028	-0,012	-0,004	-0,000	0,007	0,019	0,028	0,028	0,025	0,027	0,029	0,021	0,005	-0,008	-0,020	-0,036	-0,044	-0,036	-0,006	0,026	0,050	0,066	0,071	0,065	0,063	0,074	0,090	0,105	0,111	0,108	0,101	0,088	0,076	0,061	0,056	0,064	0,071	0,065	0,053	0,055	0,078	0,103	0,109	0,115	0,126	0,135	0,135	0,119	0,115	0,127	0,142	0,147	0,154	0,157	0,154	0,153	0,154	0,153	0,154	0,156	0,162	0,162	0,171	0,180	0,192	0,211	0,224	0,234	0,243	0,254	0,256	0,247	0,245	0,242	0,232	0,225	0,232	0,260	0,286	0,305	0,298	0,277	0,260	0,255	0,255	0,258	0,276	0,300	0,315	0,311	0,304	0,299	0,292	0,284	0,279	0,273	0,262	0,254	0,254	0,260	0,267	0,276	0,272	0,262	0,263	0,280	0,295	0,282	0,256	0,224	0,197	0,177	0,161	0,154	0,163	0,163	0,149	0,138	0,142	0,152	0,148	0,133	0,124	0,119	0,118	0,108	0,090	0,067	0,061	0,070	0,078	0,077	0,077	0,080	0,081	0,080	0,090	0,098	0,117	0,137	0,140	0,139	0,137	0,128	0,106	0,084	0,075	0,081	0,091	0,077	0,051	0,034	0,035	0,055	0,071	0,068	0,068	0,067	0,064	0,060	0,059	0,047	0,030	0,030	0,051	0,073	0,082	0,085	0,090	0,086	0,073	0,058	0,051	0,051	0,053	0,041	0,028	0,042	0,063	0,076	0,079	0,079	0,079	0,082	0,079	0,087	0,102	0,110	0,108	0,090	0,054	0,022	0,016	0,026	0,035	0,029	0,016	0,016	0,025	0,036	0,042	0,049	0,049	0,038	0,020	0,013	0,013	0,017	0,029	0,043	0,049	0,053	0,049	0,049	0,062	0,077	0,086	0,102	0,104	0,105	0,118	0,129	0,140	0,150	0,156	0,150	0,138	0,130	0,128	0,117	0,107	0,114	0,122	0,127	0,132	0,143	0,153	0,160	0,175	0,197	0,226	0,247	0,252	0,244	0,231	0,235	0,240	0,235	0,225	0,218	0,214	0,218	0,231	0,246	0,252	0,262	0,269	0,259	0,246	0,251	0,274	0,298	0,290	0,250	0,208	0,175	0,152	0,137	0,127	0,119	0,103	0,076	0,047	0,026	0,008	-0,011	-0,025	-0,020	-0,003	0,007	-0,003	-0,008	0,004	0,024	0,031	0,014	-0,020	-0,045	-0,058	-0,050	-0,037	-0,037	-0,035	-0,022	-0,015	-0,016	-0,021	-0,034	-0,052	-0,066	-0,072	-0,063	-0,050	-0,039	-0,029	-0,009	0,018	0,027	0,014	-0,009	-0,032	-0,043	-0,033	-0,015	-0,001	0,001	0,001	-0,002	-0,023	-0,039	-0,038	-0,034	-0,030	-0,031	-0,036	-0,043	-0,044	-0,039	-0,029	-0,020	-0,028	-0,045	-0,055	-0,057	-0,049	-0,049	-0,056	-0,049	-0,033	-0,020	-0,011	0,003	0,017	0,018	0,003	-0,010	-0,016	-0,019	-0,022	-0,017	-0,002	0,010	0,024	0,038	0,044	0,042	0,036	0,030	0,026	0,051	0,095	0,149	0,221	0,295	0,341	0,386	0,444	0,496	0,557	0,617	0,674	0,743	0,808	0,850	0,875	0,898	0,906	0,908	0,924	0,943	0,948	0,913	0,834	0,724	0,597	0,474	0,365	0,254	0,126	-0,005	-0,125	-0,220	-0,279	-0,326	-0,375	-0,418	-0,441	-0,440	-0,412	-0,368	-0,315	-0,267	-0,236	-0,218	-0,205	-0,197	-0,192	-0,192	-0,193	-0,189	-0,181	-0,176	-0,164	-0,137	-0,100	-0,071	-0,045	-0,034	-0,044	-0,066	-0,090	-0,106	-0,111	-0,099	-0,063	-0,035	-0,028	-0,032	-0,043	-0,048	-0,053	-0,061	-0,065	-0,068	-0,064	-0,058	-0,053	-0,045	-0,037	-0,033	-0,022	-0,013	-0,017	-0,026	-0,040	-0,049	-0,046	-0,035	-0,024	-0,015	-0,004	0,010	0,016	0,012	0,018	0,029	0,031	0,015	-0,011	-0,027	-0,026	-0,006	0,029	0,052	0,052	0,048	0,046	0,043	0,054	0,075	0,082	0,065	0,048	0,048	0,056	0,054	0,047	0,046	0,046	0,059	0,075	0,081	0,078	0,080	0,090	0,104	0,116	0,123	0,119	0,095	0,060	0,036	0,027	0,025	0,024	0,035	0,090	0,151	0,180	0,170	0,164	0,176	0,195	0,197	0,179	0,174	0,174	0,171	0,170	0,165	0,150	0,133	0,127	0,132	0,147	0,175	0,203	0,216	0,213	0,210	0,224	0,229	0,228	0,228	0,224	0,225	0,239	0,255	0,260	0,258	0,257	0,253	0,247	0,238	0,230	0,225	0,218	0,216	0,226	0,229	0,227	0,238	0,248	0,259	0,267	0,269	0,269	0,275	0,278	0,268	0,242	0,212	0,185	0,154	0,144	0,165	0,187	0,189	0,184	0,190	0,213	0,224	0,210	0,183	0,160	0,151	0,156	0,168	0,174	0,166	0,153	0,139	0,136	0,136	0,135	0,130	0,130	0,131	0,131	0,127	0,121	0,110	0,094	0,082	0,081	0,092	0,096	0,098	0,099	0,092	0,078	0,063	0,052	0,047	0,044	0,034	0,025	0,034	0,052	0,060	0,041	0,009	-0,002	0,019	0,048	0,052	0,057	0,073	0,076	0,060	0,046	0,033	0,011	-0,023	-0,035	-0,024	0,001	0,014	0,006	-0,007	-0,015	-0,009	0,001	0,005	0,010	0,021	0,027	0,031	0,032	0,027	0,028	0,025	0,021	0,024	0,018	0,004	-0,006	-0,009	-0,006	-0,002	0,002	0,002	0,011	0,033	0,046	0,033	0,009	-0,011	-0,018	-0,012	-0,002	-0,003	-0,018	-0,045	-0,062	-0,047	-0,007	0,023	0,038	0,040	0,029	0,020	0,023	0,024	0,026	0,020	0,015	0,018	0,025	0,044	0,059	0,058	0,044	0,027	0,017	0,020	0,028	0,033	0,037	0,053	0,087	0,111	0,111	0,106	0,103	0,100	0,086	0,072	0,071	0,078	0,086	0,089	0,084	0,095	0,120	0,134	0,142	0,147	0,150	0,167	0,194	0,226	0,241	0,226	0,196	0,166	0,148	0,138	0,136	0,139	0,143	0,141	0,141	0,139	0,125	0,108	0,089	0,082	0,103	0,116	0,094	0,063	0,038	0,014	0,001	0,001	0,008	0,007	-0,014	-0,047	-0,075	-0,087	-0,094	-0,110	-0,127	-0,132	-0,122	-0,118	-0,121	-0,110	-0,094	-0,085	-0,088	-0,102	-0,126	-0,135	-0,130	-0,110	-0,087	-0,080	-0,090	-0,101	-0,108	-0,125	-0,137	-0,132	-0,115	-0,100	-0,113	-0,138	-0,159	-0,162	-0,135	-0,110	-0,097	-0,099	-0,103	-0,110	-0,112	-0,104	-0,075	-0,056	-0,060	-0,078	-0,099	-0,111	-0,113	-0,113	-0,113	-0,097	-0,079	-0,086	-0,108	-0,115	-0,106	-0,098	-0,086	-0,075	-0,078	-0,091	-0,102	-0,103	-0,103	-0,105	-0,104	-0,096	-0,098	-0,100	-0,081	-0,051	-0,040	-0,050	-0,066	-0,080	-0,087	-0,071	-0,034	0,001	0,023	0,048	0,082	0,119	0,145	0,176	0,227	0,286	0,342	0,398	0,457	0,516	0,568	0,618	0,683	0,747	0,786	0,811	0,826	0,844	0,870	0,883	0,862	0,804	0,713	0,598	0,478	0,364	0,247	0,117	-0,008	-0,108	-0,187	-0,253	-0,305	-0,340	-0,374	-0,404	-0,417	-0,418	-0,418	-0,417	-0,410	-0,387	-0,347	-0,299	-0,261	-0,242	-0,240	-0,243	-0,237	-0,217	-0,191	-0,168	-0,150	-0,131	-0,108	-0,102	-0,102	-0,104	-0,105	-0,104	-0,104	-0,110	-0,134	-0,162	-0,171	-0,175	-0,176	-0,172	-0,153	-0,125	-0,102	-0,088	-0,078	-0,075	-0,081	-0,079	-0,080	-0,082	-0,081	-0,092	-0,108	-0,110	-0,096	-0,091	-0,093	-0,096	-0,104	-0,119	-0,123	-0,122	-0,110	-0,092	-0,077	-0,058	-0,035	-0,022	-0,019	-0,022	-0,025	-0,026	-0,034	-0,049	-0,067	-0,086	-0,095	-0,097	-0,088	-0,065	-0,036	-0,005	0,017	0,024	0,025	0,040	0,064	0,080	0,073	0,051	0,049	0,054	0,054	0,061	0,053	0,023	0,001	-0,012	-0,022	-0,014	0,013	0,041	0,057	0,056	0,064	0,069	0,058	0,053	0,061	0,074	0,089	0,098	0,102	0,106	0,111	0,113	0,113	0,111	0,113	0,108	0,100	0,098	0,104	0,116	0,128	0,148	0,173	0,181	0,183	0,195	0,219	0,236	0,232	0,211	0,185	0,166	0,155	0,154	0,169	0,185	0,190	0,197	0,204	0,215	0,230	0,247	0,254	0,246	0,226	0,197	0,175	0,176	0,197	0,217	0,230	0,230	0,229	0,224	0,219	0,216	0,223	0,232	0,229	0,220	0,204	0,183	0,163	0,161	0,173	0,174	0,157	0,138	0,129	0,122	0,123	0,129	0,137	0,133	0,123	0,109	0,096	0,096	0,109	0,114	0,112	0,110	0,108	0,107	0,100	0,097	0,103	0,099	0,079	0,051	0,027	0,013	0,007	-0,004	-0,012	-0,024	-0,022	0,005	0,030	0,044	0,052	0,058	0,056	0,043	0,028	0,019	0,017	0,012	-0,007	-0,035	-0,052	-0,049	-0,039	-0,034	-0,034	-0,031	-0,023	-0,018	-0,018	-0,017	-0,018	-0,021	-0,025	-0,024	-0,024	-0,032	-0,039	-0,045	-0,055	-0,069	-0,083	-0,098	-0,097	-0,088	-0,083	-0,081	-0,079	-0,070	-0,047	-0,027	-0,020	-0,010	-0,003	-0,001	-0,017	-0,036	-0,047	-0,047	-0,038	-0,041	-0,062	-0,077	-0,070	-0,061	-0,064	-0,070	-0,067	-0,062	-0,067	-0,077	-0,082	-0,069	-0,054	-0,042	-0,048	-0,066	-0,068	-0,049	-0,024	-0,018	-0,028	-0,047	-0,083	-0,128	-0,147	-0,127	-0,083	-0,037	-0,007	0,008	0,016	0,030	0,042	0,055	0,059	0,047	0,035	0,022	0,014	0,010	0,007	0,008	0,003	0,001	0,007	0,022	0,047	0,074	0,092	0,098	0,088	0,077	0,089	0,113	0,124	0,117	0,107	0,105	0,106	0,112	0,115	0,109	0,101	0,093	0,082	0,063	0,053	0,068	0,087	0,109	0,127	0,137	0,133	0,120	0,106	0,093	0,082	0,075	0,068	0,061	0,045	0,026	0,012	-0,006	-0,030	-0,045	-0,052	-0,060	-0,072	-0,079	-0,090	-0,101	-0,108	-0,121	-0,136	-0,150	-0,170	-0,183	-0,191	-0,193	-0,177	-0,155	-0,144	-0,143	-0,154	-0,163	-0,158	-0,145	-0,139	-0,144	-0,147	-0,146	-0,146	-0,137	-0,125	-0,125	-0,131	-0,139	-0,162	-0,192	-0,203	-0,187	-0,156	-0,142	-0,145	-0,151	-0,157	-0,164	-0,165	-0,156	-0,150	-0,155	-0,162	-0,144	-0,110	-0,099	-0,110	-0,134	-0,160	-0,167	-0,162	-0,159	-0,157	-0,153	-0,156	-0,154	-0,157	-0,165	-0,156	-0,133	-0,099	-0,081	-0,092	-0,102	-0,113	-0,113	-0,109	-0,118	-0,124	-0,131	-0,144	-0,152	-0,156	-0,148	-0,137	-0,134	-0,127	-0,097	-0,063	-0,037	-0,009	0,020	0,048	0,086	0,142	0,205	0,276	0,340	0,392	0,446	0,506	0,558	0,596	0,639	0,693	0,747	0,778	0,793	0,810	0,819	0,811	0,775	0,712	0,620	0,491	0,345	0,203	0,074	-0,045	-0,141	-0,200	-0,246	-0,298	-0,366	-0,433	-0,478	-0,500	-0,511	-0,501	-0,473	-0,440	-0,404	-0,362	-0,312	-0,267	-0,252	-0,247	-0,236	-0,234	-0,239	-0,242	-0,250	-0,269	-0,289	-0,288	-0,267	-0,242	-0,212	-0,178	-0,156	-0,148	-0,151	-0,157	-0,153	-0,149	-0,152	-0,156	-0,161	-0,172	-0,174	-0,168	-0,169	-0,167	-0,165	-0,168	-0,162	-0,149	-0,139	-0,135	-0,117	-0,083	-0,052	-0,055	-0,089	-0,122	-0,137	-0,130	-0,120	-0,115	-0,127	-0,135	-0,137	-0,142	-0,145	-0,139	-0,135	-0,131	-0,117	-0,100	-0,098	-0,098	-0,094	-0,080	-0,079	-0,082	-0,074	-0,058	-0,052	-0,057	-0,063	-0,065	-0,065	-0,068	-0,074	-0,081	-0,081	-0,073	-0,063	-0,056	-0,050	-0,034	-0,008	0,013	0,017	0,011	0,022	0,027	0,017	0,000	-0,005	0,016	0,048	0,059	0,045	0,027	0,014	0,021	0,040	0,048	0,045	0,046	0,052	0,051	0,044	0,040	0,048	0,068	0,087	0,096	0,093	0,088	0,080	0,065	0,064	0,086	0,115	0,129	0,127	0,126	0,125	0,128	0,130	0,136	0,154	0,165	0,167	0,175	0,190	0,200	0,200	0,186	0,158	0,134	0,122	0,114	0,121	0,144	0,179	0,202	0,206	0,211	0,215	0,218	0,228	0,231	0,221	0,205	0,199	0,211	0,213	0,184	0,135	0,101	0,095	0,098	0,098	0,099	0,106	0,112	0,113	0,110	0,110	0,120	0,128	0,123	0,108	0,082	0,058	0,059	0,066	0,068	0,060	0,040	0,028	0,032	0,037	0,030	0,006	-0,007	-0,005	-0,001	-0,011	-0,024	-0,023	-0,020	-0,020	-0,021	-0,015	-0,019	-0,034	-0,040	-0,036	-0,024	-0,017	-0,025	-0,036	-0,051	-0,071	-0,088	-0,087	-0,075	-0,067	-0,066	-0,076	-0,082	-0,080	-0,070	-0,048	-0,032	-0,037	-0,053	-0,072	-0,085	-0,095	-0,107	-0,117	-0,107	-0,084	-0,072	-0,058	-0,052	-0,051	-0,049	-0,042	-0,038	-0,039	-0,036	-0,042	-0,064	-0,087	-0,098	-0,100	-0,099	-0,107	-0,120	-0,118	-0,109	-0,105	-0,107	-0,101	-0,086	-0,078	-0,084	-0,095	-0,095	-0,087	-0,075	-0,066	-0,059	-0,067	-0,093	-0,116	-0,118	-0,112	-0,113	-0,104	-0,092	-0,081	-0,071	-0,070	-0,077	-0,084	-0,083	-0,076	-0,071	-0,074	-0,067	-0,070	-0,073	-0,060	-0,035	-0,024	-0,030	-0,032	-0,023	-0,016	-0,026	-0,026	-0,016	-0,007	0,001	0,008	0,022	0,039	0,048	0,040	0,035	0,042	0,051	0,052	0,045	0,033	0,018	0,000	0,003	0,013	0,016	0,018	0,022	0,043	0,070	0,089	0,101	0,111	0,123	0,131	0,127	0,114	0,086	0,048	0,031	0,031	0,038	0,041	0,035	0,027	0,025	0,022	0,011	-0,011	-0,025	-0,031	-0,037	-0,043	-0,054	-0,076	-0,107	-0,148	-0,188	-0,211	-0,211	-0,192	-0,159	-0,142	-0,145	-0,171	-0,205	-0,219	-0,218	-0,218	-0,218	-0,222	-0,230	-0,240	-0,250	-0,255	-0,254	-0,247	-0,243	-0,239	-0,229	-0,220	-0,216	-0,212	-0,214	-0,218	-0,219	-0,222	-0,223	-0,214	-0,188	-0,167	-0,163	-0,176	-0,199	-0,221	-0,219	-0,212	-0,213	-0,216	-0,212	-0,212	-0,217	-0,221	-0,224	-0,229	-0,233	-0,226	-0,214	-0,203	-0,193	-0,185	-0,187	-0,193	-0,198	-0,201	-0,205	-0,204	-0,196	-0,185	-0,183	-0,196	-0,222	-0,231	-0,224	-0,210	-0,192	-0,180	-0,169	-0,153	-0,145	-0,159	-0,185	-0,198	-0,190	-0,172	-0,155	-0,141	-0,138	-0,134	-0,122	-0,106	-0,086	-0,060	-0,030	0,020	0,087	0,150	0,215	0,278	0,335	0,392	0,444	0,490	0,539	0,604	0,689	0,758	0,782	0,779	0,757	0,716	0,682	0,651	0,613	0,560	0,482	0,377	0,247	0,102	-0,034	-0,152	-0,259	-0,351	-0,429	-0,487	-0,523	-0,542	-0,549	-0,555	-0,564	-0,566	-0,553	-0,517	-0,475	-0,449	-0,433	-0,416	-0,389	-0,355	-0,323	-0,298	-0,289	-0,288	-0,281	-0,278	-0,278	-0,281	-0,283	-0,277	-0,267	-0,271	-0,284	-0,281	-0,256	-0,236	-0,236	-0,230	-0,219	-0,219	-0,222	-0,224	-0,220	-0,222	-0,229	-0,233	-0,232	-0,226	-0,217	-0,206	-0,205	-0,217	-0,227	-0,223	-0,209	-0,196	-0,187	-0,189	-0,200	-0,199	-0,187	-0,173	-0,152	-0,126	-0,114	-0,121	-0,142	-0,159	-0,166	-0,168	-0,173	-0,169	-0,158	-0,145	-0,141	-0,143	-0,140	-0,145	-0,148	-0,128	-0,099	-0,083	-0,086	-0,103	-0,119	-0,122	-0,105	-0,087	-0,093	-0,110	-0,109	-0,092	-0,081	-0,096	-0,108	-0,112	-0,127	-0,126	-0,106	-0,086	-0,063	-0,037	-0,024	-0,035	-0,051	-0,056	-0,053	-0,055	-0,058	-0,053	-0,040	-0,033	-0,044	-0,056	-0,059	-0,052	-0,040	-0,022	-0,016	-0,020	-0,018	-0,004	0,026	0,055	0,068	0,068	0,060	0,048	0,038	0,031	0,027	0,015	0,011	0,012	0,013	0,014	0,029	0,047	0,063	0,079	0,091	0,094	0,092	0,096	0,106	0,121	0,128	0,109	0,089	0,089	0,100	0,112	0,106	0,095	0,094	0,100	0,113	0,114	0,086	0,056	0,042	0,054	0,087	0,118	0,124	0,109	0,085	0,066	0,051	0,043	0,039	0,038	0,032	0,024	0,025	0,029	0,028	0,018	0,008	-0,000	-0,005	-0,005	-0,007	-0,012	-0,026	-0,043	-0,060	-0,061	-0,045	-0,035	-0,047	-0,059	-0,064	-0,057	-0,054	-0,061	-0,072	-0,089	-0,111	-0,123	-0,113	-0,090	-0,072	-0,056	-0,040	-0,042	-0,074	-0,103	-0,113	-0,125	-0,132	-0,125	-0,120	-0,112	-0,105	-0,107	-0,123	-0,133	-0,134	-0,120	-0,106	-0,096	-0,086	-0,078	-0,081	-0,075	-0,071	-0,080	-0,108	-0,140	-0,163	-0,176	-0,181	-0,186	-0,194	-0,201	-0,200	-0,187	-0,175	-0,170	-0,161	-0,140	-0,115	-0,100	-0,099	-0,108	-0,126	-0,134	-0,130	-0,126	-0,133	-0,145	-0,153	-0,164	-0,175	-0,188	-0,192	-0,180	-0,169	-0,165	-0,157	-0,152	-0,147	-0,145	-0,151	-0,152	-0,146	-0,146	-0,151	-0,165	-0,185	-0,201	-0,205	-0,188	-0,161	-0,142	-0,130	-0,127	-0,119	-0,105	-0,093	-0,086	-0,085	-0,088	-0,098	-0,105	-0,097	-0,096	-0,107	-0,116	-0,105	-0,085	-0,066	-0,064	-0,070	-0,070	-0,066	-0,060	-0,043	-0,018	0,003	0,005	-0,008	-0,018	-0,022	-0,012	0,012	0,033	0,029	0,014	0,010	0,013	0,016	0,021	0,040	0,052	0,047	0,036	0,026	0,025	0,028	0,031	0,035	0,041	0,051	0,055	0,049	0,026	-0,015	-0,061	-0,091	-0,107	-0,126	-0,141	-0,154	-0,163	-0,166	-0,164	-0,160	-0,156	-0,157	-0,167	-0,186	-0,205	-0,213	-0,222	-0,233	-0,242	-0,250	-0,268	-0,291	-0,299	-0,288	-0,268	-0,243	-0,224	-0,207	-0,198	-0,220	-0,258	-0,275	-0,273	-0,260	-0,238	-0,220	-0,216	-0,231	-0,250	-0,259	-0,268	-0,274	-0,273	-0,274	-0,266	-0,258	-0,250	-0,249	-0,252	-0,251	-0,251	-0,255	-0,260	-0,253	-0,236	-0,209	-0,185	-0,166	-0,161	-0,169	-0,177	-0,178	-0,192	-0,227	-0,258	-0,268	-0,273	-0,282	-0,275	-0,257	-0,244	-0,236	-0,231	-0,224	-0,211	-0,190	-0,182	-0,193	-0,213	-0,222	-0,206	-0,199	-0,214	-0,228	-0,230	-0,222	-0,209	-0,203	-0,196	-0,191	-0,193	-0,182	-0,148	-0,115	-0,094	-0,067	-0,033	0,009	0,052	0,109	0,175	0,238	0,299	0,359	0,423	0,489	0,557	0,612	0,643	0,665	0,694	0,735	0,767	0,776	0,767	0,754	0,702	0,589	0,432	0,263	0,119	-0,001	-0,115	-0,223	-0,323	-0,416	-0,487	-0,532	-0,552	-0,565	-0,581	-0,590	-0,589	-0,579	-0,550	-0,500	-0,437	-0,376	-0,331	-0,312	-0,303	-0,303	-0,311	-0,321	-0,332	-0,341	-0,348	-0,345	-0,337	-0,319	-0,290	-0,254	-0,228	-0,216	-0,211	-0,215	-0,221	-0,230	-0,228	-0,209	-0,197	-0,199	-0,210	-0,231	-0,242	-0,252	-0,256	-0,265	-0,277	-0,282	-0,278	-0,269	-0,255	-0,234	-0,217	-0,200	-0,187	-0,177	-0,183	-0,199	-0,206	-0,201	-0,192	-0,192	-0,199	-0,207	-0,219	-0,229	-0,234	-0,233	-0,223	-0,203	-0,190	-0,181	-0,179	-0,177	-0,174	-0,176	-0,180	-0,177	-0,157	-0,132	-0,120	-0,130	-0,148	-0,159	-0,157	-0,147	-0,135	-0,132	-0,134	-0,134	-0,134	-0,119	-0,099	-0,082	-0,079	-0,078	-0,084	-0,093	-0,091	-0,090	-0,086	-0,086	-0,098	-0,110	-0,114	-0,115	-0,106	-0,085	-0,062	-0,048	-0,038	-0,028	-0,033	-0,054	-0,077	-0,090	-0,084	-0,064	-0,038	-0,017	-0,007	-0,004	-0,008	-0,017	-0,021	-0,018	-0,009	-0,004	-0,014	-0,029	-0,031	-0,001	0,029	0,033	0,038	0,050	0,070	0,084	0,089	0,090	0,091	0,090	0,081	0,070	0,068	0,067	0,068	0,074	0,082	0,093	0,093	0,080	0,076	0,089	0,115	0,134	0,120	0,088	0,066	0,055	0,049	0,048	0,044	0,038	0,039	0,039	0,038	0,040	0,051	0,071	0,084	0,087	0,084	0,088	0,089	0,072	0,046	0,023	0,006	-0,005	-0,020	-0,045	-0,065	-0,074	-0,074	-0,062	-0,061	-0,065	-0,051	-0,023	-0,001	0,004	-0,001	-0,007	-0,011	-0,014	-0,034	-0,069	-0,093	-0,103	-0,113	-0,116	-0,112	-0,109	-0,114	-0,106	-0,081	-0,059	-0,055	-0,065	-0,077	-0,081	-0,083	-0,091	-0,106	-0,114	-0,105	-0,085	-0,070	-0,064	-0,072	-0,092	-0,112	-0,132	-0,156	-0,167	-0,146	-0,099	-0,076	-0,088	-0,120	-0,139	-0,148	-0,148	-0,146	-0,140	-0,136	-0,133	-0,126	-0,120	-0,122	-0,128	-0,135	-0,144	-0,142	-0,132	-0,127	-0,111	-0,086	-0,075	-0,086	-0,099	-0,094	-0,089	-0,095	-0,097	-0,091	-0,098	-0,121	-0,140	-0,153	-0,176	-0,191	-0,178	-0,152	-0,146	-0,137	-0,116	-0,115	-0,127	-0,128	-0,112	-0,085	-0,066	-0,074	-0,086	-0,096	-0,104	-0,106	-0,107	-0,105	-0,107	-0,111	-0,114	-0,111	-0,100	-0,083	-0,063	-0,049	-0,043	-0,042	-0,049	-0,048	-0,050	-0,058	-0,068	-0,072	-0,069	-0,064	-0,058	-0,060	-0,059	-0,056	-0,055	-0,047	-0,032	-0,004	0,032	0,061	0,078	0,089	0,094	0,082	0,081	0,094	0,112	0,114	0,098	0,072	0,039	0,030	0,032	0,029	0,027	0,026	0,016	0,009	0,012	0,018	0,016	0,009	-0,003	-0,008	0,008	0,011	-0,008	-0,030	-0,055	-0,090	-0,121	-0,139	-0,131	-0,097	-0,080	-0,088	-0,118	-0,147	-0,155	-0,165	-0,197	-0,225	-0,230	-0,231	-0,233	-0,223	-0,197	-0,166	-0,148	-0,152	-0,176	-0,215	-0,240	-0,245	-0,233	-0,225	-0,215	-0,204	-0,199	-0,200	-0,194	-0,177	-0,163	-0,145	-0,135	-0,136	-0,147	-0,165	-0,186	-0,209	-0,230	-0,249	-0,248	-0,222	-0,192	-0,164	-0,151	-0,149	-0,148	-0,151	-0,156	-0,152	-0,147	-0,144	-0,137	-0,126	-0,119	-0,129	-0,150	-0,177	-0,198	-0,188	-0,146	-0,132	-0,147	-0,165	-0,176	-0,167	-0,140	-0,117	-0,116	-0,129	-0,148	-0,161	-0,151	-0,138	-0,134	-0,138	-0,138	-0,136	-0,144	-0,148	-0,122	-0,091	-0,070	-0,063	-0,028	0,031	0,072	0,090	0,109	0,146	0,197	0,267	0,345	0,417	0,490	0,548	0,584	0,608	0,635	0,670	0,702	0,723	0,732	0,742	0,756	0,761	0,744	0,683	0,587	0,474	0,360	0,246	0,141	0,044	-0,049	-0,136	-0,227	-0,314	-0,385	-0,435	-0,479	-0,511	-0,516	-0,510	-0,492	-0,467	-0,441	-0,400	-0,344	-0,288	-0,250	-0,233	-0,223	-0,211	-0,202	-0,200	-0,196	-0,189	-0,187	-0,191	-0,201	-0,218	-0,235	-0,250	-0,248	-0,229	-0,201	-0,173	-0,148	-0,136	-0,134	-0,124	-0,104	-0,098	-0,109	-0,122	-0,136	-0,149	-0,160	-0,174	-0,178	-0,165	-0,147	-0,128	-0,104	-0,077	-0,053	-0,066	-0,091	-0,093	-0,090	-0,102	-0,116	-0,119	-0,108	-0,087	-0,063	-0,044	-0,039	-0,044	-0,057	-0,074	-0,102	-0,122	-0,123	-0,110	-0,099	-0,091	-0,083	-0,074	-0,062	-0,052	-0,052	-0,061	-0,064	-0,075	-0,092	-0,089	-0,060	-0,026	0,000	0,012	0,012	-0,001	-0,016	-0,016	-0,015	-0,012	-0,013	-0,015	-0,011	0,001	0,009	0,003	-0,002	0,001	0,010	0,018	0,015	-0,001	-0,013	-0,026	-0,032	-0,026	-0,009	0,011	0,032	0,053	0,066	0,074	0,085	0,092	0,101	0,109	0,119	0,126	0,125	0,126	0,129	0,122	0,108	0,103	0,112	0,115	0,115	0,122	0,132	0,148	0,171	0,189	0,197	0,195	0,190	0,182	0,170	0,154	0,128	0,111	0,106	0,113	0,134	0,161	0,190	0,202	0,209	0,215	0,223	0,220	0,210	0,200	0,197	0,204	0,210	0,198	0,180	0,156	0,131	0,112	0,113	0,127	0,133	0,119	0,104	0,104	0,107	0,106	0,103	0,097	0,108	0,127	0,136	0,129	0,112	0,092	0,076	0,069	0,060	0,046	0,035	0,021	0,003	-0,012	-0,023	-0,027	-0,021	-0,008	0,006	0,017	0,024	0,027	0,027	0,026	0,018	0,007	-0,007	-0,020	-0,037	-0,045	-0,055	-0,055	-0,045	-0,035	-0,027	-0,023	-0,026	-0,015	0,007	0,009	-0,008	-0,028	-0,039	-0,044	-0,050	-0,042	-0,022	-0,012	-0,024	-0,043	-0,047	-0,049	-0,063	-0,067	-0,062	-0,060	-0,058	-0,050	-0,046	-0,047	-0,050	-0,053	-0,056	-0,061	-0,068	-0,076	-0,083	-0,085	-0,079	-0,071	-0,063	-0,062	-0,073	-0,080	-0,076	-0,069	-0,062	-0,054	-0,042	-0,036	-0,032	-0,023	-0,016	-0,020	-0,038	-0,051	-0,044	-0,030	-0,034	-0,052	-0,072	-0,095	-0,108	-0,113	-0,125	-0,126	-0,111	-0,097	-0,097	-0,098	-0,088	-0,073	-0,060	-0,050	-0,047	-0,050	-0,049	-0,042	-0,041	-0,044	-0,036	-0,021	-0,003	0,000	-0,016	-0,033	-0,045	-0,045	-0,035	-0,014	0,001	0,001	-0,011	-0,016	-0,019	-0,017	0,003	0,033	0,056	0,066	0,062	0,057	0,058	0,060	0,066	0,068	0,076	0,101	0,129	0,140	0,125	0,108	0,100	0,105	0,121	0,140	0,151	0,156	0,156	0,149	0,138	0,133	0,123	0,099	0,073	0,056	0,052	0,047	0,049	0,065	0,082	0,080	0,061	0,038	0,022	0,001	-0,023	-0,037	-0,040	-0,049	-0,072	-0,101	-0,121	-0,118	-0,107	-0,103	-0,106	-0,107	-0,113	-0,125	-0,142	-0,158	-0,162	-0,152	-0,145	-0,146	-0,157	-0,166	-0,169	-0,170	-0,166	-0,152	-0,135	-0,133	-0,151	-0,168	-0,178	-0,188	-0,193	-0,188	-0,179	-0,173	-0,164	-0,162	-0,161	-0,140	-0,117	-0,126	-0,138	-0,136	-0,124	-0,118	-0,117	-0,120	-0,143	-0,167	-0,157	-0,128	-0,101	-0,088	-0,098	-0,131	-0,155	-0,162	-0,155	-0,135	-0,105	-0,076	-0,064	-0,056	-0,039	-0,036	-0,052	-0,073	-0,107	-0,134	-0,149	-0,146	-0,123	-0,088	-0,070	-0,075	-0,086	-0,105	-0,108	-0,103	-0,105	-0,104	-0,089	-0,073	-0,063	-0,060	-0,060	-0,051	-0,029	0,004	0,046	0,081	0,114	0,159	0,231	0,319	0,400	0,463	0,523	0,581	0,640	0,683	0,713	0,730	0,748	0,772	0,786	0,792	0,787	0,760	0,701	0,612	0,501	0,381	0,263	0,152	0,056	-0,025	-0,110	-0,209	-0,299	-0,366	-0,418	-0,446	-0,463	-0,471	-0,470	-0,459	-0,441	-0,417	-0,390	-0,356	-0,325	-0,300	-0,282	-0,272	-0,247	-0,200	-0,156	-0,118	-0,087	-0,073	-0,075	-0,081	-0,098	-0,129	-0,154	-0,157	-0,145	-0,129	-0,120	-0,105	-0,100	-0,098	-0,098	-0,105	-0,112	-0,120	-0,127	-0,134	-0,132	-0,121	-0,116	-0,120	-0,134	-0,141	-0,141	-0,140	-0,140	-0,144	-0,133	-0,106	-0,076	-0,058	-0,052	-0,042	-0,038	-0,056	-0,081	-0,099	-0,115	-0,124	-0,116	-0,103	-0,092	-0,085	-0,084	-0,079	-0,074	-0,067	-0,044	-0,011	0,006	0,003	-0,010	-0,021	-0,030	-0,043	-0,058	-0,055	0,001	0,076	0,111	0,089	0,040	-0,005	-0,043	-0,064	-0,068	-0,062	-0,053	-0,046	-0,030	-0,005	0,017	0,027	0,031	0,034	0,032	0,024	0,008	-0,012	-0,011	0,009	0,017	0,019	0,025	0,045	0,067	0,092	0,106	0,117	0,130	0,141	0,158	0,166	0,162	0,163	0,165	0,167	0,177	0,199	0,208	0,198	0,178	0,160	0,138	0,121	0,116	0,122	0,140	0,161	0,186	0,218	0,249	0,261	0,257	0,243	0,233	0,223	0,228	0,245	0,259	0,250	0,231	0,215	0,203	0,194	0,200	0,222	0,235	0,231	0,225	0,232	0,238	0,234	0,216	0,192	0,180	0,177	0,171	0,162	0,151	0,139	0,127	0,119	0,113	0,118	0,127	0,128	0,118	0,104	0,093	0,084	0,094	0,107	0,109	0,117	0,123	0,112	0,100	0,087	0,077	0,070	0,059	0,044	0,030	0,026	0,022	0,017	0,016	0,007	-0,008	-0,013	-0,015	-0,012	-0,004	0,003	0,015	0,032	0,028	0,016	0,008	0,003	-0,003	-0,011	-0,004	0,017	0,029	0,025	0,016	0,013	0,021	0,022	0,013	0,003	-0,002	-0,004	0,009	0,019	0,012	-0,010	-0,023	-0,025	-0,029	-0,027	-0,031	-0,040	-0,053	-0,059	-0,046	-0,020	-0,006	-0,012	-0,034	-0,057	-0,050	-0,023	-0,002	-0,008	-0,021	-0,037	-0,048	-0,047	-0,045	-0,054	-0,054	-0,052	-0,059	-0,062	-0,058	-0,051	-0,039	-0,029	-0,027	-0,032	-0,027	-0,021	-0,023	-0,040	-0,070	-0,099	-0,109	-0,107	-0,097	-0,078	-0,058	-0,028	-0,012	-0,016	-0,036	-0,058	-0,074	-0,083	-0,080	-0,065	-0,052	-0,036	-0,022	-0,018	-0,024	-0,026	-0,021	-0,030	-0,049	-0,049	-0,015	0,041	0,077	0,074	0,049	0,034	0,041	0,059	0,074	0,082	0,092	0,107	0,113	0,104	0,091	0,086	0,091	0,101	0,103	0,105	0,108	0,106	0,099	0,089	0,081	0,078	0,094	0,117	0,139	0,159	0,180	0,202	0,218	0,220	0,206	0,185	0,180	0,188	0,183	0,163	0,136	0,107	0,095	0,080	0,062	0,047	0,035	0,026	0,013	0,009	0,013	0,012	0,006	-0,003	-0,019	-0,039	-0,059	-0,071	-0,082	-0,088	-0,091	-0,099	-0,110	-0,126	-0,156	-0,174	-0,173	-0,169	-0,159	-0,141	-0,124	-0,111	-0,101	-0,094	-0,089	-0,091	-0,096	-0,108	-0,127	-0,138	-0,140	-0,142	-0,139	-0,134	-0,137	-0,150	-0,159	-0,154	-0,147	-0,139	-0,126	-0,122	-0,109	-0,101	-0,120	-0,143	-0,145	-0,128	-0,103	-0,080	-0,072	-0,081	-0,093	-0,111	-0,125	-0,124	-0,110	-0,103	-0,103	-0,091	-0,071	-0,063	-0,061	-0,057	-0,058	-0,073	-0,090	-0,091	-0,087	-0,075	-0,065	-0,060	-0,060	-0,064	-0,067	-0,072	-0,076	-0,075	-0,078	-0,091	-0,109	-0,121	-0,133	-0,126	-0,103	-0,075	-0,054	-0,039	-0,019	0,006	0,027	0,049	0,074	0,114	0,170	0,236	0,304	0,378	0,457	0,529	0,590	0,646	0,699	0,760	0,815	0,844	0,845	0,818	0,793	0,779	0,785	0,774	0,715	0,623	0,523	0,419	0,309	0,199	0,088	-0,020	-0,111	-0,177	-0,232	-0,285	-0,337	-0,393	-0,437	-0,456	-0,451	-0,444	-0,435	-0,404	-0,360	-0,314	-0,290	-0,280	-0,265	-0,256	-0,255	-0,250	-0,241	-0,219	-0,185	-0,158	-0,143	-0,135	-0,130	-0,130	-0,131	-0,131	-0,133	-0,140	-0,153	-0,165	-0,168	-0,156	-0,135	-0,110	-0,087	-0,066	-0,049	-0,047	-0,060	-0,070	-0,060	-0,058	-0,067	-0,072	-0,072	-0,071	-0,075	-0,086	-0,101	-0,108	-0,099	-0,092	-0,090	-0,082	-0,074	-0,069	-0,064	-0,059	-0,063	-0,061	-0,058	-0,067	-0,084	-0,091	-0,077	-0,042	-0,009	0,021	0,038	0,036	0,027	0,012	0,004	0,015	0,032	0,027	0,014	0,002	-0,012	-0,013	-0,009	-0,006	-0,002	0,003	0,021	0,039	0,037	0,027	0,026	0,037	0,045	0,050	0,056	0,055	0,055	0,061	0,075	0,080	0,078	0,079	0,088	0,094	0,098	0,092	0,081	0,074	0,066	0,054	0,043	0,039	0,038	0,042	0,044	0,051	0,076	0,126	0,170	0,187	0,188	0,184	0,176	0,175	0,180	0,180	0,180	0,193	0,199	0,190	0,171	0,163	0,167	0,177	0,183	0,181	0,166	0,163	0,186	0,212	0,217	0,208	0,208	0,217	0,222	0,222	0,217	0,215	0,220	0,232	0,241	0,250	0,258	0,264	0,264	0,254	0,249	0,262	0,280	0,288	0,292	0,304	0,314	0,309	0,280	0,228	0,174	0,139	0,128	0,128	0,139	0,159	0,167	0,165	0,173	0,171	0,153	0,137	0,134	0,147	0,155	0,151	0,130	0,099	0,072	0,065	0,070	0,075	0,074	0,070	0,065	0,064	0,063	0,054	0,045	0,043	0,050	0,064	0,073	0,077	0,087	0,095	0,099	0,091	0,077	0,063	0,041	0,022	0,021	0,029	0,047	0,063	0,062	0,059	0,071	0,084	0,085	0,076	0,071	0,064	0,052	0,043	0,038	0,039	0,041	0,039	0,030	0,023	0,016	0,007	0,000	-0,001	-0,006	-0,015	-0,010	0,006	0,024	0,023	0,005	0,001	0,015	0,031	0,044	0,061	0,078	0,072	0,045	0,022	0,005	-0,009	-0,019	-0,026	-0,011	0,021	0,042	0,039	0,032	0,030	0,031	0,028	0,031	0,043	0,060	0,065	0,049	0,022	-0,009	-0,026	-0,024	-0,016	-0,004	0,000	0,000	-0,002	-0,002	0,002	0,015	0,030	0,040	0,041	0,039	0,041	0,046	0,053	0,061	0,066	0,074	0,078	0,074	0,061	0,056	0,071	0,086	0,084	0,078	0,081	0,089	0,105	0,130	0,144	0,157	0,170	0,176	0,175	0,171	0,173	0,169	0,145	0,116	0,098	0,090	0,098	0,128	0,167	0,193	0,210	0,223	0,241	0,261	0,268	0,262	0,236	0,204	0,173	0,156	0,155	0,173	0,174	0,154	0,146	0,142	0,111	0,061	0,014	-0,002	0,013	0,025	0,031	0,034	0,015	-0,016	-0,037	-0,054	-0,059	-0,060	-0,067	-0,080	-0,094	-0,106	-0,117	-0,121	-0,119	-0,113	-0,106	-0,103	-0,104	-0,104	-0,088	-0,065	-0,047	-0,047	-0,069	-0,086	-0,093	-0,107	-0,124	-0,124	-0,114	-0,118	-0,143	-0,169	-0,171	-0,160	-0,140	-0,114	-0,091	-0,072	-0,045	-0,014	0,004	0,005	-0,006	-0,018	-0,022	-0,024	-0,030	-0,039	-0,053	-0,071	-0,079	-0,078	-0,076	-0,071	-0,064	-0,060	-0,060	-0,057	-0,045	-0,038	-0,037	-0,040	-0,032	-0,026	-0,032	-0,050	-0,064	-0,073	-0,093	-0,109	-0,090	-0,059	-0,045	-0,050	-0,064	-0,064	-0,048	-0,020	-0,007	-0,005	0,004	0,007	0,015	0,041	0,078	0,108	0,139	0,179	0,227	0,294	0,365	0,431	0,496	0,548	0,601	0,656	0,709	0,756	0,791	0,816	0,831	0,840	0,851	0,862	0,852	0,817	0,748	0,650	0,547	0,447	0,345	0,230	0,114	0,009	-0,075	-0,149	-0,217	-0,277	-0,321	-0,353	-0,376	-0,381	-0,379	-0,373	-0,365	-0,356	-0,338	-0,308	-0,268	-0,232	-0,207	-0,184	-0,157	-0,136	-0,122	-0,112	-0,097	-0,091	-0,087	-0,075	-0,063	-0,056	-0,056	-0,054	-0,052	-0,057	-0,069	-0,091	-0,115	-0,130	-0,139	-0,143	-0,139	-0,123	-0,104	-0,088	-0,074	-0,066	-0,056	-0,042	-0,033	-0,016	-0,016	-0,030	-0,045	-0,066	-0,068	-0,060	-0,064	-0,078	-0,077	-0,058	-0,035	-0,025	-0,027	-0,028	-0,024	-0,019	-0,010	-0,000	0,014	0,022	0,021	0,006	-0,015	-0,025	-0,027	-0,039	-0,062	-0,082	-0,082	-0,064	-0,031	0,001	0,020	0,027	0,026	0,026	0,027	0,030	0,029	0,035	0,045	0,052	0,047	0,033	0,016	0,008	0,013	0,019	0,037	0,068	0,087	0,095	0,107	0,119	0,115	0,106	0,094	0,082	0,081	0,090	0,101	0,110	0,119	0,133	0,150	0,167	0,174	0,175	0,163	0,131	0,094	0,080	0,092	0,106	0,114	0,120	0,126	0,146	0,174	0,195	0,200	0,198	0,195	0,191	0,194	0,200	0,213	0,238	0,253	0,254	0,250	0,243	0,224	0,198	0,172	0,160	0,180	0,230	0,269	0,278	0,281	0,290	0,283	0,264	0,240	0,222	0,212	0,213	0,216	0,225	0,237	0,248	0,255	0,251	0,226	0,206	0,205	0,208	0,206	0,211	0,218	0,222	0,222	0,219	0,212	0,192	0,164	0,126	0,102	0,098	0,098	0,099	0,103	0,110	0,112	0,110	0,120	0,139	0,142	0,125	0,106	0,091	0,086	0,085	0,079	0,061	0,049	0,055	0,076	0,085	0,083	0,079	0,081	0,081	0,070	0,061	0,059	0,065	0,072	0,074	0,076	0,078	0,077	0,067	0,055	0,041	0,025	0,008	0,009	0,025	0,036	0,037	0,034	0,029	0,018	0,008	0,004	0,010	0,014	0,016	0,032	0,050	0,055	0,052	0,051	0,038	0,016	-0,008	-0,011	-0,005	0,002	0,018	0,027	0,017	0,006	0,008	0,010	0,005	-0,007	-0,013	-0,004	0,003	-0,005	-0,022	-0,033	-0,037	-0,038	-0,044	-0,050	-0,055	-0,038	-0,016	0,000	0,018	0,038	0,042	0,033	0,019	0,008	0,010	0,018	0,014	-0,010	-0,032	-0,036	-0,036	-0,038	-0,036	-0,029	-0,024	-0,028	-0,021	0,007	0,037	0,053	0,057	0,046	0,033	0,024	0,014	0,020	0,043	0,065	0,071	0,071	0,076	0,074	0,075	0,077	0,079	0,081	0,092	0,111	0,135	0,159	0,166	0,158	0,152	0,158	0,165	0,170	0,166	0,156	0,145	0,130	0,118	0,107	0,103	0,114	0,136	0,151	0,170	0,189	0,206	0,216	0,229	0,238	0,234	0,217	0,211	0,202	0,181	0,169	0,162	0,147	0,123	0,090	0,049	0,005	-0,032	-0,052	-0,038	-0,002	0,020	0,024	0,028	0,020	-0,003	-0,031	-0,053	-0,058	-0,047	-0,032	-0,029	-0,037	-0,061	-0,091	-0,117	-0,137	-0,135	-0,120	-0,111	-0,118	-0,116	-0,105	-0,098	-0,100	-0,087	-0,056	-0,036	-0,040	-0,050	-0,055	-0,064	-0,068	-0,072	-0,078	-0,087	-0,103	-0,115	-0,112	-0,096	-0,064	-0,046	-0,059	-0,073	-0,077	-0,061	-0,035	-0,027	-0,037	-0,059	-0,073	-0,075	-0,069	-0,058	-0,050	-0,068	-0,104	-0,121	-0,107	-0,068	-0,030	-0,018	-0,025	-0,032	-0,028	-0,040	-0,056	-0,057	-0,063	-0,078	-0,091	-0,085	-0,076	-0,074	-0,068	-0,063	-0,063	-0,061	-0,049	-0,042	-0,044	-0,050	-0,056	-0,053	-0,032	-0,024	-0,027	-0,022	0,006	0,055	0,114	0,163	0,197	0,229	0,266	0,315	0,375	0,441	0,508	0,564	0,612	0,662	0,705	0,731	0,755	0,789	0,819	0,836	0,856	0,878	0,881	0,828	0,718	0,579	0,441	0,313	0,203	0,100	-0,010	-0,116	-0,193	-0,238	-0,277	-0,314	-0,344	-0,368	-0,390	-0,402	-0,394	-0,375	-0,353	-0,331	-0,301	-0,265	-0,231	-0,211	-0,205	-0,212	-0,215	-0,207	-0,195	-0,186	-0,161	-0,128	-0,113	-0,124	-0,138	-0,148	-0,142	-0,125	-0,103	-0,082	-0,082	-0,097	-0,114	-0,125	-0,123	-0,111	-0,104	-0,107	-0,112	-0,108	-0,102	-0,104	-0,102	-0,089	-0,078	-0,064	-0,052	-0,056	-0,068	-0,074	-0,072	-0,063	-0,058	-0,057	-0,057	-0,053	-0,046	-0,039	-0,031	-0,025	-0,027	-0,032	-0,034	-0,029	-0,015	-0,004	0,002	0,011	0,016	0,012	0,004	-0,017	-0,031	-0,022	-0,006	0,010	0,014	0,014	0,004	-0,006	-0,001	0,017	0,024	0,028	0,043	0,058	0,071	0,074	0,071	0,071	0,077	0,075	0,061	0,055	0,054	0,049	0,037	0,023	0,019	0,031	0,052	0,065	0,074	0,082	0,086	0,085	0,090	0,084	0,068	0,047	0,036	0,053	0,078	0,088	0,096	0,107	0,110	0,108	0,110	0,111	0,121	0,143	0,161	0,159	0,152	0,154	0,167	0,189	0,206	0,205	0,194	0,188	0,189	0,191	0,202	0,213	0,219	0,220	0,214	0,212	0,203	0,196	0,187	0,181	0,189	0,205	0,226	0,246	0,265	0,276	0,273	0,256	0,242	0,232	0,225	0,214	0,206	0,199	0,189	0,177	0,169	0,171	0,180	0,191	0,199	0,190	0,167	0,143	0,121	0,103	0,091	0,090	0,099	0,105	0,101	0,092	0,093	0,094	0,094	0,096	0,088	0,070	0,059	0,058	0,058	0,054	0,061	0,072	0,078	0,071	0,063	0,052	0,041	0,028	0,001	-0,023	-0,026	-0,021	-0,001	0,033	0,049	0,052	0,046	0,039	0,045	0,056	0,055	0,037	0,014	-0,011	-0,028	-0,037	-0,048	-0,062	-0,079	-0,092	-0,092	-0,093	-0,102	-0,099	-0,077	-0,042	-0,015	-0,003	-0,005	-0,008	-0,009	-0,012	-0,019	-0,024	-0,033	-0,050	-0,069	-0,079	-0,075	-0,050	-0,028	-0,024	-0,025	-0,018	-0,019	-0,025	-0,033	-0,055	-0,083	-0,099	-0,095	-0,069	-0,029	-0,005	0,009	0,021	0,025	0,025	0,016	0,002	-0,012	-0,024	-0,038	-0,046	-0,054	-0,066	-0,079	-0,075	-0,071	-0,067	-0,063	-0,067	-0,072	-0,074	-0,075	-0,070	-0,066	-0,063	-0,063	-0,075	-0,077	-0,050	0,004	0,052	0,083	0,097	0,087	0,065	0,036	0,003	-0,009	-0,003	0,017	0,037	0,052	0,055	0,053	0,058	0,046	0,023	-0,003	-0,015	-0,011	-0,005	0,002	0,009	0,022	0,047	0,081	0,109	0,132	0,152	0,161	0,162	0,159	0,160	0,169	0,176	0,167	0,146	0,123	0,114	0,128	0,154	0,183	0,200	0,198	0,180	0,154	0,138	0,127	0,111	0,094	0,083	0,080	0,074	0,061	0,046	0,041	0,049	0,051	0,036	0,007	-0,016	-0,011	0,009	0,016	-0,000	-0,016	-0,030	-0,049	-0,066	-0,077	-0,089	-0,107	-0,121	-0,144	-0,173	-0,199	-0,213	-0,211	-0,191	-0,160	-0,134	-0,127	-0,133	-0,128	-0,115	-0,111	-0,113	-0,116	-0,129	-0,141	-0,144	-0,143	-0,149	-0,158	-0,160	-0,151	-0,133	-0,121	-0,107	-0,102	-0,108	-0,112	-0,115	-0,116	-0,116	-0,112	-0,118	-0,122	-0,112	-0,096	-0,093	-0,103	-0,109	-0,106	-0,103	-0,106	-0,110	-0,113	-0,111	-0,112	-0,111	-0,104	-0,087	-0,068	-0,056	-0,051	-0,056	-0,061	-0,061	-0,059	-0,056	-0,060	-0,068	-0,085	-0,111	-0,125	-0,118	-0,114	-0,113	-0,092	-0,064	-0,054	-0,061	-0,066	-0,051	-0,013	0,027	0,054	0,071	0,097	0,147	0,207	0,258	0,300	0,347	0,390	0,423	0,460	0,498	0,543	0,601	0,672	0,724	0,746	0,769	0,797	0,836	0,871	0,873	0,822	0,732	0,618	0,495	0,370	0,248	0,129	0,000	-0,131	-0,233	-0,301	-0,349	-0,385	-0,429	-0,462	-0,479	-0,483	-0,474	-0,446	-0,413	-0,384	-0,362	-0,343	-0,311	-0,275	-0,246	-0,222	-0,193	-0,173	-0,158	-0,143	-0,139	-0,143	-0,143	-0,133	-0,115	-0,093	-0,068	-0,059	-0,057	-0,060	-0,079	-0,101	-0,110	-0,119	-0,134	-0,150	-0,141	-0,131	-0,128	-0,126	-0,124	-0,115	-0,097	-0,071	-0,042	-0,035	-0,047	-0,047	-0,033	-0,009	0,003	0,001	-0,005	-0,012	-0,027	-0,051	-0,064	-0,067	-0,068	-0,068	-0,060	-0,047	-0,033	-0,020	-0,015	-0,011	-0,006	-0,006	-0,012	-0,012	-0,007	-0,008	-0,020	-0,025	-0,014	-0,008	-0,012	-0,020	-0,018	-0,006	0,008	0,018	0,011	-0,001	-0,012	-0,007	0,002	0,012	0,025	0,032	0,041	0,047	0,037	0,023	0,021	0,021	0,009	-0,006	0,005	0,046	0,076	0,086	0,080	0,069	0,072	0,084	0,098	0,108	0,112	0,114	0,111	0,116	0,126	0,129	0,119	0,103	0,096	0,096	0,094	0,093	0,105	0,127	0,153	0,167	0,185	0,205	0,224	0,240	0,247	0,240	0,217	0,199	0,203	0,211	0,222	0,214	0,199	0,202	0,232	0,263	0,273	0,262	0,240	0,231	0,226	0,223	0,222	0,237	0,261	0,275	0,268	0,249	0,222	0,190	0,162	0,145	0,144	0,145	0,148	0,165	0,180	0,181	0,173	0,175	0,182	0,182	0,183	0,179	0,169	0,152	0,125	0,100	0,095	0,093	0,103	0,116	0,113	0,107	0,113	0,121	0,124	0,123	0,124	0,115	0,094	0,073	0,050	0,024	0,010	0,012	0,020	0,022	0,014	0,011	0,010	0,010	0,015	0,013	0,002	-0,004	-0,000	-0,003	-0,006	0,003	0,016	0,026	0,027	0,020	0,008	0,002	0,009	0,025	0,049	0,069	0,067	0,051	0,023	-0,002	-0,020	-0,029	-0,027	-0,025	-0,012	0,008	0,029	0,025	0,010	-0,000	0,003	0,008	0,020	0,039	0,027	0,007	-0,022	-0,036	-0,025	-0,012	-0,022	-0,035	-0,047	-0,053	-0,051	-0,047	-0,039	-0,009	0,022	0,030	0,020	0,001	-0,022	-0,040	-0,049	-0,047	-0,047	-0,047	-0,035	-0,020	-0,009	-0,009	-0,017	-0,018	-0,020	-0,036	-0,055	-0,061	-0,050	-0,021	0,009	0,030	0,042	0,049	0,048	0,031	0,004	-0,025	-0,040	-0,038	-0,029	-0,025	-0,030	-0,036	-0,024	-0,005	0,005	0,011	0,020	0,032	0,044	0,058	0,069	0,072	0,070	0,060	0,051	0,039	0,024	0,026	0,044	0,066	0,078	0,074	0,073	0,081	0,100	0,126	0,145	0,157	0,162	0,162	0,154	0,151	0,153	0,155	0,146	0,123	0,109	0,111	0,135	0,172	0,193	0,193	0,200	0,212	0,214	0,212	0,195	0,168	0,136	0,103	0,081	0,073	0,073	0,072	0,063	0,048	0,035	0,016	0,006	0,012	0,027	0,028	0,011	-0,018	-0,056	-0,091	-0,117	-0,126	-0,124	-0,121	-0,113	-0,097	-0,082	-0,084	-0,108	-0,136	-0,148	-0,147	-0,134	-0,116	-0,108	-0,111	-0,118	-0,126	-0,130	-0,132	-0,126	-0,115	-0,112	-0,124	-0,128	-0,114	-0,100	-0,099	-0,110	-0,128	-0,145	-0,151	-0,134	-0,102	-0,081	-0,083	-0,097	-0,108	-0,105	-0,082	-0,063	-0,061	-0,069	-0,080	-0,096	-0,119	-0,131	-0,122	-0,103	-0,087	-0,081	-0,080	-0,088	-0,092	-0,085	-0,078	-0,074	-0,070	-0,069	-0,073	-0,079	-0,084	-0,090	-0,091	-0,089	-0,073	-0,048	-0,039	-0,040	-0,056	-0,070	-0,079	-0,081	-0,081	-0,079	-0,085	-0,089	-0,085	-0,070	-0,044	-0,013	0,025	0,072	0,127	0,193	0,251	0,292	0,326	0,368	0,412	0,465	0,535	0,614	0,683	0,737	0,777	0,804	0,831	0,844	0,845	0,838	0,831	0,816	0,766	0,675	0,554	0,419	0,281	0,148	0,033	-0,059	-0,144	-0,224	-0,288	-0,341	-0,398	-0,462	-0,508	-0,510	-0,467	-0,422	-0,394	-0,361	-0,325	-0,297	-0,268	-0,239	-0,232	-0,230	-0,227	-0,215	-0,201	-0,197	-0,186	-0,161	-0,138	-0,125	-0,122	-0,126	-0,134	-0,143	-0,136	-0,133	-0,140	-0,147	-0,154	-0,156	-0,142	-0,131	-0,139	-0,159	-0,165	-0,137	-0,093	-0,059	-0,047	-0,068	-0,110	-0,137	-0,147	-0,134	-0,098	-0,057	-0,037	-0,044	-0,060	-0,071	-0,085	-0,093	-0,092	-0,091	-0,083	-0,062	-0,043	-0,033	-0,022	-0,020	-0,027	-0,026	-0,023	-0,021	-0,016	-0,003	0,022	0,044	0,033	0,005	-0,021	-0,036	-0,037	-0,033	-0,024	-0,024	-0,020	-0,015	-0,013	-0,013	0,004	0,032	0,047	0,051	0,064	0,068	0,055	0,044	0,046	0,049	0,045	0,029	0,017	0,010	0,008	0,006	0,011	0,023	0,026	0,037	0,060	0,081	0,085	0,077	0,058	0,029	0,005	0,017	0,045	0,056	0,060	0,075	0,088	0,089	0,083	0,080	0,087	0,108	0,125	0,128	0,131	0,142	0,155	0,163	0,166	0,168	0,176	0,188	0,191	0,187	0,179	0,173	0,167	0,154	0,152	0,174	0,198	0,200	0,187	0,188	0,194	0,197	0,190	0,179	0,183	0,202	0,218	0,219	0,211	0,196	0,177	0,172	0,171	0,173	0,170	0,161	0,169	0,195	0,213	0,224	0,223	0,214	0,195	0,172	0,147	0,119	0,097	0,083	0,086	0,091	0,089	0,078	0,070	0,074	0,074	0,076	0,080	0,086	0,092	0,097	0,099	0,096	0,091	0,094	0,101	0,103	0,101	0,094	0,075	0,040	0,011	0,002	0,007	0,008	0,013	0,013	0,022	0,041	0,056	0,052	0,045	0,046	0,040	0,036	0,033	0,025	0,018	0,005	-0,006	-0,017	-0,028	-0,034	-0,040	-0,046	-0,051	-0,049	-0,033	-0,011	0,002	-0,001	-0,001	0,003	-0,003	-0,010	-0,006	0,018	0,047	0,055	0,040	0,018	-0,015	-0,050	-0,075	-0,076	-0,066	-0,052	-0,039	-0,027	-0,028	-0,036	-0,049	-0,053	-0,041	-0,010	0,019	0,031	0,034	0,020	-0,015	-0,056	-0,078	-0,084	-0,085	-0,089	-0,088	-0,081	-0,078	-0,075	-0,070	-0,057	-0,041	-0,037	-0,056	-0,078	-0,081	-0,069	-0,053	-0,036	-0,024	-0,016	-0,016	-0,018	-0,007	0,009	0,013	0,013	0,014	0,016	0,014	0,012	0,009	0,011	0,015	0,026	0,050	0,069	0,070	0,057	0,042	0,035	0,038	0,052	0,065	0,067	0,064	0,065	0,067	0,074	0,084	0,097	0,104	0,113	0,119	0,115	0,114	0,128	0,144	0,147	0,145	0,140	0,134	0,128	0,118	0,111	0,114	0,115	0,111	0,120	0,134	0,118	0,076	0,035	0,010	0,003	-0,004	-0,005	0,001	-0,008	-0,028	-0,046	-0,063	-0,065	-0,063	-0,067	-0,077	-0,091	-0,101	-0,101	-0,102	-0,108	-0,127	-0,146	-0,146	-0,128	-0,114	-0,112	-0,119	-0,127	-0,134	-0,147	-0,154	-0,150	-0,156	-0,174	-0,196	-0,202	-0,191	-0,189	-0,201	-0,201	-0,182	-0,170	-0,169	-0,173	-0,166	-0,154	-0,135	-0,113	-0,098	-0,101	-0,119	-0,131	-0,134	-0,131	-0,125	-0,122	-0,118	-0,117	-0,125	-0,133	-0,141	-0,152	-0,155	-0,146	-0,121	-0,096	-0,083	-0,083	-0,086	-0,088	-0,099	-0,113	-0,139	-0,168	-0,186	-0,191	-0,186	-0,177	-0,163	-0,148	-0,135	-0,122	-0,100	-0,078	-0,067	-0,061	-0,055	-0,063	-0,089	-0,116	-0,137	-0,145	-0,150	-0,147	-0,133	-0,083	-0,004	0,053	0,082	0,106	0,130	0,156	0,197	0,257	0,325	0,391	0,455	0,512	0,552	0,583	0,613	0,651	0,680	0,707	0,738	0,768	0,788	0,795	0,788	0,763	0,706	0,598	0,470	0,353	0,244	0,146	0,055	-0,045	-0,148	-0,243	-0,319	-0,386	-0,450	-0,497	-0,515	-0,522	-0,515	-0,486	-0,434	-0,378	-0,332	-0,300	-0,286	-0,288	-0,297	-0,294	-0,273	-0,245	-0,218	-0,191	-0,179	-0,197	-0,219	-0,224	-0,211	-0,199	-0,193	-0,188	-0,174	-0,149	-0,133	-0,130	-0,131	-0,132	-0,130	-0,130	-0,134	-0,131	-0,128	-0,134	-0,141	-0,147	-0,158	-0,168	-0,170	-0,159	-0,136	-0,122	-0,123	-0,126	-0,111	-0,087	-0,071	-0,083	-0,112	-0,136	-0,135	-0,114	-0,102	-0,113	-0,134	-0,139	-0,132	-0,125	-0,127	-0,120	-0,102	-0,096	-0,082	-0,059	-0,038	-0,016	-0,008	-0,031	-0,063	-0,073	-0,065	-0,059	-0,054	-0,040	-0,038	-0,043	-0,041	-0,038	-0,039	-0,040	-0,038	-0,038	-0,047	-0,053	-0,043	-0,023	-0,013	0,001	0,029	0,054	0,060	0,041	0,014	-0,012	-0,038	-0,058	-0,062	-0,059	-0,038	0,004	0,036	0,053	0,068	0,078	0,080	0,078	0,078	0,073	0,063	0,052	0,049	0,057	0,074	0,093	0,111	0,127	0,133	0,129	0,124	0,122	0,122	0,124	0,122	0,129	0,138	0,144	0,143	0,130	0,115	0,118	0,136	0,162	0,182	0,189	0,178	0,164	0,159	0,172	0,182	0,181	0,175	0,169	0,167	0,174	0,178	0,168	0,153	0,141	0,141	0,153	0,178	0,205	0,213	0,194	0,165	0,136	0,109	0,093	0,096	0,110	0,117	0,123	0,139	0,147	0,139	0,127	0,114	0,097	0,080	0,074	0,069	0,058	0,044	0,040	0,053	0,057	0,045	0,026	0,005	-0,010	-0,009	-0,002	-0,001	-0,007	-0,009	-0,004	0,006	0,018	0,018	0,001	-0,014	-0,036	-0,057	-0,059	-0,047	-0,049	-0,061	-0,061	-0,050	-0,041	-0,039	-0,042	-0,043	-0,032	-0,012	-0,004	0,000	0,001	-0,005	-0,017	-0,038	-0,056	-0,064	-0,064	-0,058	-0,044	-0,037	-0,052	-0,090	-0,123	-0,132	-0,106	-0,068	-0,052	-0,062	-0,094	-0,136	-0,150	-0,131	-0,095	-0,068	-0,053	-0,045	-0,049	-0,058	-0,062	-0,069	-0,088	-0,105	-0,113	-0,119	-0,128	-0,131	-0,128	-0,113	-0,091	-0,081	-0,073	-0,063	-0,071	-0,089	-0,103	-0,113	-0,121	-0,112	-0,090	-0,075	-0,084	-0,111	-0,125	-0,124	-0,117	-0,106	-0,097	-0,091	-0,094	-0,090	-0,075	-0,068	-0,070	-0,074	-0,078	-0,077	-0,071	-0,071	-0,079	-0,088	-0,078	-0,064	-0,059	-0,056	-0,051	-0,049	-0,053	-0,052	-0,038	-0,028	-0,018	-0,008	-0,007	-0,015	-0,009	0,004	0,004	0,002	0,009	0,009	0,009	0,016	0,018	0,019	0,027	0,031	0,038	0,051	0,066	0,083	0,084	0,085	0,098	0,100	0,087	0,071	0,067	0,045	0,012	-0,013	-0,010	0,012	0,022	0,020	0,021	0,023	0,019	0,011	0,019	0,030	0,039	0,043	0,022	-0,012	-0,042	-0,064	-0,083	-0,090	-0,087	-0,098	-0,128	-0,158	-0,177	-0,191	-0,210	-0,233	-0,251	-0,251	-0,230	-0,208	-0,190	-0,168	-0,154	-0,152	-0,170	-0,194	-0,209	-0,222	-0,235	-0,254	-0,261	-0,253	-0,242	-0,233	-0,219	-0,204	-0,190	-0,182	-0,183	-0,191	-0,196	-0,208	-0,215	-0,205	-0,195	-0,188	-0,189	-0,196	-0,203	-0,218	-0,231	-0,230	-0,215	-0,202	-0,198	-0,206	-0,224	-0,238	-0,236	-0,218	-0,196	-0,178	-0,165	-0,163	-0,183	-0,207	-0,213	-0,205	-0,191	-0,195	-0,209	-0,220	-0,227	-0,233	-0,238	-0,219	-0,192	-0,179	-0,178	-0,182	-0,183	-0,171	-0,154	-0,141	-0,132	-0,123	-0,117	-0,114	-0,116	-0,116	-0,106	-0,102	-0,095	-0,084	-0,057	-0,005	0,056	0,117	0,175	0,233	0,299	0,377	0,447	0,499	0,542	0,593	0,646	0,683	0,710	0,736	0,742	0,730	0,713	0,710	0,691	0,634	0,548	0,456	0,364	0,263	0,156	0,058	-0,032	-0,131	-0,232	-0,328	-0,403	-0,454	-0,484	-0,508	-0,525	-0,531	-0,517	-0,490	-0,461	-0,433	-0,407	-0,381	-0,352	-0,310	-0,273	-0,253	-0,254	-0,270	-0,286	-0,301	-0,300	-0,295	-0,287	-0,265	-0,241	-0,217	-0,195	-0,188	-0,190	-0,191	-0,182	-0,175	-0,179	-0,190	-0,197	-0,193	-0,189	-0,188	-0,187	-0,187	-0,187	-0,192	-0,197	-0,205	-0,217	-0,222	-0,213	-0,197	-0,180	-0,158	-0,130	-0,114	-0,115	-0,118	-0,119	-0,110	-0,095	-0,086	-0,086	-0,091	-0,090	-0,105	-0,127	-0,147	-0,166	-0,173	-0,159	-0,132	-0,113	-0,100	-0,090	-0,084	-0,089	-0,105	-0,120	-0,117	-0,105	-0,093	-0,083	-0,072	-0,071	-0,088	-0,097	-0,093	-0,078	-0,059	-0,056	-0,060	-0,061	-0,055	-0,041	-0,026	-0,000	0,025	0,029	0,006	-0,027	-0,045	-0,035	-0,023	-0,022	-0,026	-0,036	-0,040	-0,032	-0,018	-0,001	0,014	0,027	0,039	0,035	0,031	0,023	0,006	-0,001	0,016	0,055	0,086	0,101	0,103	0,106	0,112	0,114	0,100	0,091	0,087	0,075	0,059	0,063	0,079	0,099	0,127	0,146	0,151	0,160	0,180	0,198	0,193	0,182	0,181	0,188	0,190	0,175	0,163	0,167	0,165	0,160	0,144	0,128	0,120	0,114	0,113	0,126	0,147	0,160	0,159	0,148	0,131	0,116	0,106	0,110	0,124	0,134	0,125	0,102	0,087	0,088	0,092	0,095	0,106	0,117	0,118	0,110	0,096	0,077	0,049	0,021	0,000	-0,013	-0,018	-0,020	-0,011	-0,007	-0,012	-0,023	-0,040	-0,064	-0,076	-0,073	-0,054	-0,029	-0,011	-0,001	0,002	-0,003	-0,020	-0,031	-0,032	-0,028	-0,024	-0,028	-0,043	-0,061	-0,071	-0,076	-0,080	-0,083	-0,074	-0,063	-0,060	-0,045	-0,018	0,009	0,024	0,020	-0,003	-0,028	-0,045	-0,056	-0,058	-0,055	-0,059	-0,065	-0,073	-0,091	-0,121	-0,141	-0,128	-0,118	-0,127	-0,137	-0,122	-0,079	-0,038	-0,025	-0,030	-0,032	-0,041	-0,068	-0,104	-0,126	-0,134	-0,130	-0,118	-0,107	-0,093	-0,079	-0,081	-0,096	-0,113	-0,112	-0,099	-0,091	-0,089	-0,090	-0,095	-0,094	-0,088	-0,090	-0,088	-0,097	-0,125	-0,155	-0,168	-0,158	-0,136	-0,110	-0,087	-0,078	-0,087	-0,100	-0,103	-0,092	-0,074	-0,060	-0,046	-0,033	-0,025	-0,025	-0,032	-0,041	-0,049	-0,052	-0,047	-0,033	-0,023	-0,021	-0,024	-0,023	-0,015	-0,004	0,001	-0,005	-0,010	-0,004	0,013	0,030	0,038	0,041	0,049	0,054	0,069	0,087	0,088	0,081	0,071	0,067	0,072	0,081	0,084	0,088	0,102	0,123	0,142	0,140	0,128	0,113	0,098	0,094	0,092	0,087	0,082	0,084	0,080	0,062	0,031	0,001	-0,022	-0,031	-0,029	-0,019	-0,020	-0,031	-0,042	-0,046	-0,046	-0,045	-0,044	-0,023	0,007	0,005	-0,015	-0,039	-0,067	-0,109	-0,147	-0,170	-0,181	-0,193	-0,204	-0,213	-0,212	-0,195	-0,179	-0,176	-0,180	-0,188	-0,186	-0,174	-0,159	-0,151	-0,159	-0,184	-0,205	-0,194	-0,175	-0,163	-0,152	-0,138	-0,141	-0,155	-0,175	-0,173	-0,160	-0,143	-0,119	-0,106	-0,112	-0,131	-0,145	-0,153	-0,160	-0,177	-0,196	-0,217	-0,231	-0,233	-0,224	-0,206	-0,172	-0,141	-0,129	-0,131	-0,120	-0,098	-0,090	-0,102	-0,117	-0,117	-0,106	-0,118	-0,145	-0,161	-0,159	-0,156	-0,150	-0,141	-0,138	-0,144	-0,157	-0,176	-0,184	-0,173	-0,142	-0,111	-0,086	-0,072	-0,075	-0,083	-0,086	-0,085	-0,086	-0,083	-0,079	-0,073	-0,057	-0,029	0,008	0,065	0,134	0,208	0,285	0,341	0,374	0,397	0,438	0,503	0,569	0,618	0,669	0,723	0,769	0,811	0,835	0,827	0,803	0,778	0,760	0,727	0,660	0,560	0,448	0,340	0,245	0,147	0,040	-0,063	-0,166	-0,248	-0,314	-0,375	-0,431	-0,480	-0,516	-0,521	-0,502	-0,471	-0,440	-0,410	-0,363	-0,312	-0,287	-0,283	-0,275	-0,257	-0,232	-0,209	-0,188	-0,176	-0,185	-0,199	-0,201	-0,203	-0,214	-0,221	-0,222	-0,202	-0,171	-0,147	-0,140	-0,137	-0,136	-0,146	-0,161	-0,168	-0,152	-0,118	-0,085	-0,070	-0,073	-0,085	-0,091	-0,077	-0,072	-0,072	-0,074	-0,084	-0,105	-0,114	-0,114	-0,115	-0,110	-0,094	-0,069	-0,046	-0,034	-0,038	-0,038	-0,017	0,005	0,003	-0,025	-0,048	-0,068	-0,084	-0,098	-0,102	-0,085	-0,066	-0,047	-0,026	-0,003	0,007	0,006	0,003	0,011	0,014	0,010	0,006	-0,005	-0,011	-0,005	0,005	-0,005	-0,023	-0,035	-0,035	-0,013	0,028	0,078	0,101	0,108	0,122	0,125	0,105	0,080	0,066	0,073	0,086	0,094	0,086	0,068	0,059	0,055	0,048	0,047	0,052	0,055	0,061	0,070	0,080	0,095	0,105	0,107	0,109	0,106	0,100	0,089	0,076	0,076	0,087	0,103	0,126	0,147	0,152	0,145	0,145	0,150	0,159	0,164	0,175	0,193	0,208	0,216	0,217	0,211	0,201	0,185	0,176	0,172	0,177	0,190	0,195	0,205	0,219	0,222	0,219	0,222	0,222	0,231	0,243	0,237	0,225	0,216	0,202	0,197	0,199	0,207	0,201	0,188	0,207	0,232	0,231	0,207	0,175	0,148	0,132	0,134	0,141	0,154	0,161	0,155	0,141	0,133	0,128	0,125	0,131	0,143	0,150	0,142	0,122	0,097	0,089	0,104	0,110	0,102	0,087	0,072	0,058	0,055	0,057	0,052	0,045	0,042	0,050	0,076	0,105	0,120	0,122	0,106	0,065	0,022	-0,017	-0,040	-0,039	-0,023	0,005	0,033	0,044	0,045	0,058	0,072	0,070	0,058	0,047	0,037	0,032	0,032	0,020	0,004	-0,013	-0,028	-0,041	-0,045	-0,029	-0,005	0,019	0,032	0,024	0,013	0,008	0,000	-0,006	-0,010	-0,003	0,013	0,033	0,040	0,052	0,069	0,073	0,058	0,034	0,003	-0,026	-0,041	-0,055	-0,068	-0,064	-0,032	-0,000	0,013	0,018	0,015	0,013	0,013	-0,000	-0,006	0,008	0,020	0,019	-0,001	-0,029	-0,051	-0,057	-0,055	-0,041	-0,020	-0,005	-0,001	0,007	0,012	0,011	0,005	0,003	0,015	0,038	0,063	0,073	0,067	0,050	0,034	0,024	0,017	0,014	0,011	0,019	0,029	0,042	0,064	0,080	0,078	0,082	0,098	0,114	0,132	0,142	0,136	0,130	0,126	0,119	0,128	0,135	0,128	0,121	0,117	0,111	0,117	0,144	0,176	0,188	0,179	0,188	0,217	0,220	0,205	0,185	0,172	0,164	0,163	0,152	0,133	0,099	0,068	0,052	0,050	0,045	0,039	0,031	0,023	0,016	0,010	0,005	0,002	0,001	-0,008	-0,019	-0,023	-0,031	-0,041	-0,057	-0,089	-0,127	-0,150	-0,155	-0,157	-0,168	-0,183	-0,191	-0,183	-0,157	-0,134	-0,117	-0,102	-0,101	-0,107	-0,108	-0,103	-0,101	-0,107	-0,117	-0,125	-0,114	-0,098	-0,103	-0,122	-0,129	-0,124	-0,119	-0,114	-0,107	-0,107	-0,115	-0,127	-0,140	-0,145	-0,133	-0,106	-0,077	-0,080	-0,117	-0,145	-0,152	-0,152	-0,141	-0,125	-0,117	-0,114	-0,118	-0,127	-0,103	-0,072	-0,066	-0,077	-0,090	-0,100	-0,106	-0,109	-0,118	-0,127	-0,126	-0,119	-0,118	-0,130	-0,146	-0,150	-0,136	-0,125	-0,116	-0,108	-0,095	-0,073	-0,071	-0,084	-0,091	-0,089	-0,077	-0,051	-0,019	0,006	0,015	0,021	0,043	0,079	0,117	0,152	0,198	0,268	0,352	0,434	0,509	0,577	0,631	0,670	0,703	0,734	0,771	0,806	0,834	0,853	0,857	0,842	0,790	0,700	0,582	0,444	0,307	0,171	0,039	-0,059	-0,129	-0,201	-0,290	-0,379	-0,448	-0,484	-0,493	-0,500	-0,501	-0,489	-0,469	-0,433	-0,389	-0,365	-0,351	-0,342	-0,336	-0,333	-0,331	-0,307	-0,262	-0,213	-0,191	-0,175	-0,171	-0,165	-0,149	-0,124	-0,118	-0,129	-0,147	-0,173	-0,185	-0,191	-0,210	-0,231	-0,241	-0,232	-0,220	-0,204	-0,190	-0,172	-0,157	-0,148	-0,140	-0,136	-0,130	-0,124	-0,121	-0,102	-0,080	-0,079	-0,107	-0,145	-0,171	-0,176	-0,167	-0,150	-0,128	-0,105	-0,089	-0,086	-0,096	-0,115	-0,118	-0,090	-0,044	-0,009	-0,010	-0,034	-0,042	-0,036	-0,044	-0,083	-0,123	-0,136	-0,123	-0,102	-0,077	-0,040	-0,002	0,018	0,011	-0,003	-0,019	-0,027	-0,016	0,006	0,023	0,032	0,042	0,049	0,040	0,018	-0,002	-0,017	-0,032	-0,026	0,011	0,060	0,090	0,092	0,075	0,061	0,046	0,033	0,031	0,026	0,017	0,034	0,068	0,083	0,087	0,098	0,110	0,116	0,115	0,096	0,068	0,051	0,055	0,062	0,075	0,090	0,119	0,155	0,176	0,181	0,181	0,182	0,173	0,155	0,139	0,134	0,146	0,165	0,182	0,214	0,242	0,268	0,283	0,277	0,256	0,236	0,223	0,218	0,209	0,196	0,192	0,194	0,204	0,218	0,222	0,222	0,223	0,220	0,222	0,222	0,220	0,213	0,198	0,184	0,174	0,167	0,160	0,163	0,177	0,193	0,217	0,230	0,222	0,198	0,157	0,116	0,090	0,084	0,085	0,080	0,071	0,082	0,101	0,103	0,096	0,096	0,108	0,110	0,089	0,066	0,051	0,030	0,015	-0,006	-0,033	-0,046	-0,048	-0,036	-0,016	0,008	0,021	0,024	0,037	0,060	0,065	0,060	0,063	0,076	0,085	0,086	0,088	0,078	0,048	-0,002	-0,052	-0,057	-0,025	-0,005	-0,006	0,000	0,013	0,018	0,010	-0,005	-0,014	-0,025	-0,035	-0,027	-0,003	0,020	0,036	0,036	0,023	0,011	0,004	0,000	-0,005	-0,011	-0,012	-0,001	0,004	0,001	0,005	0,004	-0,007	-0,001	0,016	0,024	0,028	0,028	0,022	0,010	-0,004	-0,011	-0,014	-0,020	-0,034	-0,037	-0,031	-0,024	-0,028	-0,041	-0,051	-0,054	-0,053	-0,049	-0,023	0,003	0,012	0,003	-0,020	-0,052	-0,073	-0,073	-0,067	-0,065	-0,065	-0,066	-0,062	-0,045	-0,030	-0,011	0,002	0,006	0,009	0,015	0,031	0,037	0,027	0,022	0,030	0,049	0,058	0,047	0,029	0,015	0,004	0,002	0,018	0,031	0,033	0,040	0,055	0,070	0,072	0,065	0,060	0,057	0,066	0,073	0,079	0,087	0,103	0,126	0,148	0,158	0,153	0,140	0,130	0,137	0,155	0,172	0,187	0,189	0,181	0,173	0,174	0,181	0,190	0,186	0,178	0,167	0,159	0,148	0,138	0,119	0,088	0,059	0,031	0,000	-0,007	0,012	0,041	0,052	0,040	0,018	-0,002	-0,005	-0,006	-0,020	-0,033	-0,040	-0,052	-0,072	-0,107	-0,138	-0,145	-0,128	-0,117	-0,118	-0,121	-0,118	-0,120	-0,120	-0,112	-0,119	-0,135	-0,151	-0,157	-0,157	-0,165	-0,177	-0,180	-0,164	-0,135	-0,124	-0,133	-0,145	-0,144	-0,135	-0,126	-0,107	-0,075	-0,050	-0,042	-0,053	-0,071	-0,084	-0,098	-0,115	-0,133	-0,139	-0,125	-0,115	-0,109	-0,101	-0,095	-0,089	-0,092	-0,095	-0,090	-0,091	-0,090	-0,076	-0,066	-0,061	-0,065	-0,077	-0,082	-0,070	-0,062	-0,061	-0,045	-0,030	-0,040	-0,068	-0,101	-0,131	-0,152	-0,160	-0,160	-0,152	-0,145	-0,122	-0,099	-0,079	-0,067	-0,060	-0,061	-0,065	-0,061	-0,043	-0,007	0,028	0,051	0,072	0,107	0,146	0,184	0,214	0,252	0,316	0,391	0,459	0,520	0,571	0,622	0,672	0,723	0,763	0,787	0,801	0,808	0,803	0,782	0,739	0,679	0,617	0,546	0,461	0,362	0,252	0,148	0,048	-0,050	-0,142	-0,226	-0,293	-0,356	-0,407	-0,432	-0,438	-0,440	-0,440	-0,428	-0,404	-0,386	-0,369	-0,351	-0,329	-0,300	-0,272	-0,256	-0,248	-0,224	-0,186	-0,149	-0,121	-0,109	-0,095	-0,080	-0,082	-0,101	-0,124	-0,138	-0,141	-0,145	-0,153	-0,158	-0,156	-0,150	-0,145	-0,149	-0,155	-0,157	-0,155	-0,151	-0,147	-0,140	-0,136	-0,137	-0,147	-0,152	-0,162	-0,163	-0,157	-0,150	-0,147	-0,144	-0,140	-0,137	-0,130	-0,122	-0,108	-0,095	-0,076	-0,053	-0,048	-0,048	-0,044	-0,050	-0,064	-0,073	-0,058	-0,029	-0,015	-0,018	-0,027	-0,041	-0,058	-0,065	-0,052	-0,042	-0,041	-0,051	-0,063	-0,066	-0,075	-0,083	-0,081	-0,068	-0,058	-0,049	-0,043	-0,047	-0,059	-0,068	-0,070	-0,060	-0,033	-0,008	0,002	0,001	-0,006	-0,012	-0,019	-0,023	-0,031	-0,035	-0,026	-0,008	0,015	0,026	0,026	0,033	0,051	0,065	0,067	0,065	0,068	0,071	0,072	0,067	0,057	0,048	0,041	0,038	0,049	0,071	0,096	0,116	0,127	0,126	0,117	0,111	0,117	0,128	0,133	0,134	0,124	0,118	0,127	0,162	0,211	0,239	0,241	0,228	0,211	0,189	0,165	0,159	0,165	0,174	0,188	0,196	0,197	0,194	0,196	0,192	0,184	0,173	0,159	0,143	0,132	0,130	0,130	0,132	0,136	0,137	0,140	0,145	0,138	0,118	0,085	0,056	0,041	0,045	0,055	0,060	0,064	0,073	0,086	0,089	0,072	0,050	0,035	0,037	0,038	0,030	0,020	0,012	0,009	0,006	-0,001	-0,013	-0,024	-0,036	-0,045	-0,049	-0,052	-0,057	-0,061	-0,057	-0,050	-0,048	-0,063	-0,076	-0,075	-0,068	-0,070	-0,078	-0,080	-0,076	-0,069	-0,072	-0,082	-0,095	-0,110	-0,115	-0,112	-0,100	-0,081	-0,071	-0,063	-0,055	-0,048	-0,047	-0,058	-0,074	-0,083	-0,083	-0,064	-0,038	-0,025	-0,029	-0,042	-0,059	-0,079	-0,103	-0,121	-0,120	-0,098	-0,073	-0,069	-0,074	-0,085	-0,093	-0,088	-0,068	-0,044	-0,029	-0,019	-0,019	-0,036	-0,065	-0,098	-0,122	-0,133	-0,133	-0,122	-0,115	-0,109	-0,109	-0,108	-0,109	-0,114	-0,108	-0,094	-0,076	-0,071	-0,081	-0,100	-0,116	-0,108	-0,082	-0,062	-0,058	-0,090	-0,118	-0,115	-0,100	-0,082	-0,072	-0,076	-0,087	-0,093	-0,088	-0,080	-0,072	-0,058	-0,031	-0,002	0,005	0,003	-0,006	-0,027	-0,048	-0,050	-0,040	-0,033	-0,037	-0,044	-0,046	-0,042	-0,022	-0,000	0,025	0,040	0,042	0,044	0,045	0,040	0,033	0,040	0,056	0,072	0,092	0,111	0,115	0,103	0,081	0,061	0,067	0,085	0,100	0,107	0,103	0,105	0,115	0,117	0,113	0,096	0,068	0,041	0,017	0,003	-0,001	-0,011	-0,023	-0,025	-0,008	0,009	0,000	-0,027	-0,053	-0,069	-0,066	-0,047	-0,046	-0,069	-0,101	-0,135	-0,160	-0,170	-0,180	-0,199	-0,211	-0,208	-0,189	-0,169	-0,170	-0,185	-0,198	-0,195	-0,185	-0,179	-0,175	-0,159	-0,141	-0,139	-0,146	-0,156	-0,169	-0,168	-0,161	-0,158	-0,159	-0,160	-0,166	-0,183	-0,194	-0,192	-0,186	-0,172	-0,159	-0,154	-0,150	-0,142	-0,131	-0,122	-0,114	-0,102	-0,095	-0,105	-0,121	-0,130	-0,138	-0,153	-0,164	-0,167	-0,162	-0,158	-0,160	-0,167	-0,176	-0,177	-0,172	-0,170	-0,166	-0,157	-0,160	-0,169	-0,171	-0,151	-0,123	-0,103	-0,103	-0,108	-0,106	-0,099	-0,076	-0,062	-0,073	-0,087	-0,091	-0,093	-0,097	-0,100	-0,094	-0,082	-0,054	-0,016	0,014	0,038	0,057	0,084	0,118	0,165	0,229	0,303	0,376	0,457	0,527	0,582	0,626	0,665	0,702	0,740	0,773	0,794	0,799	0,787	0,763	0,741	0,714	0,670	0,610	0,531	0,425	0,302	0,168	0,035	-0,086	-0,186	-0,275	-0,351	-0,401	-0,432	-0,449	-0,458	-0,466	-0,477	-0,489	-0,491	-0,476	-0,459	-0,440	-0,408	-0,375	-0,339	-0,307	-0,275	-0,252	-0,239	-0,220	-0,194	-0,178	-0,171	-0,174	-0,185	-0,189	-0,183	-0,173	-0,157	-0,147	-0,144	-0,164	-0,196	-0,207	-0,210	-0,212	-0,189	-0,151	-0,125	-0,131	-0,144	-0,146	-0,144	-0,132	-0,111	-0,106	-0,115	-0,116	-0,110	-0,126	-0,141	-0,150	-0,154	-0,157	-0,137	-0,098	-0,073	-0,080	-0,100	-0,112	-0,110	-0,088	-0,066	-0,051	-0,049	-0,053	-0,066	-0,078	-0,078	-0,081	-0,089	-0,087	-0,082	-0,079	-0,074	-0,069	-0,074	-0,082	-0,072	-0,043	-0,027	-0,034	-0,048	-0,061	-0,073	-0,075	-0,063	-0,035	-0,014	-0,016	-0,033	-0,047	-0,058	-0,055	-0,038	-0,028	-0,041	-0,049	-0,038	-0,001	0,036	0,062	0,085	0,090	0,082	0,067	0,055	0,042	0,024	0,007	-0,000	0,009	0,017	0,012	0,023	0,062	0,090	0,082	0,066	0,065	0,077	0,083	0,082	0,084	0,088	0,092	0,101	0,112	0,108	0,102	0,099	0,090	0,086	0,090	0,099	0,110	0,127	0,153	0,173	0,181	0,186	0,191	0,196	0,199	0,181	0,150	0,127	0,122	0,126	0,133	0,143	0,153	0,165	0,167	0,159	0,147	0,142	0,152	0,166	0,186	0,201	0,195	0,179	0,158	0,136	0,131	0,137	0,143	0,145	0,146	0,148	0,137	0,124	0,115	0,097	0,075	0,063	0,057	0,050	0,029	0,008	0,010	0,024	0,040	0,063	0,078	0,083	0,079	0,070	0,044	0,004	-0,016	-0,004	0,013	0,029	0,037	0,034	0,022	0,001	-0,021	-0,031	-0,031	-0,020	-0,004	0,011	0,009	-0,015	-0,039	-0,052	-0,048	-0,041	-0,038	-0,040	-0,045	-0,042	-0,030	-0,017	-0,003	0,010	0,007	-0,007	-0,013	-0,006	-0,002	-0,012	-0,022	-0,023	-0,023	-0,032	-0,054	-0,070	-0,071	-0,068	-0,071	-0,065	-0,060	-0,069	-0,072	-0,049	-0,024	-0,012	-0,003	-0,001	-0,006	-0,015	-0,022	-0,028	-0,043	-0,058	-0,071	-0,078	-0,082	-0,081	-0,089	-0,096	-0,099	-0,097	-0,090	-0,080	-0,060	-0,035	-0,011	0,002	0,009	0,023	0,022	-0,007	-0,040	-0,049	-0,049	-0,051	-0,046	-0,036	-0,033	-0,035	-0,047	-0,056	-0,048	-0,027	-0,010	-0,005	-0,010	-0,016	-0,024	-0,031	-0,039	-0,043	-0,041	-0,041	-0,045	-0,053	-0,054	-0,042	-0,029	-0,004	0,028	0,047	0,055	0,065	0,089	0,113	0,123	0,126	0,134	0,139	0,139	0,136	0,133	0,134	0,130	0,121	0,119	0,120	0,120	0,108	0,086	0,071	0,068	0,072	0,071	0,071	0,065	0,059	0,059	0,061	0,043	0,018	-0,006	-0,027	-0,035	-0,031	-0,029	-0,030	-0,037	-0,036	-0,019	-0,012	-0,036	-0,082	-0,103	-0,077	-0,061	-0,111	-0,176	-0,209	-0,205	-0,193	-0,191	-0,195	-0,190	-0,179	-0,172	-0,175	-0,192	-0,211	-0,229	-0,235	-0,230	-0,229	-0,230	-0,222	-0,192	-0,164	-0,150	-0,134	-0,117	-0,109	-0,112	-0,123	-0,139	-0,157	-0,174	-0,191	-0,208	-0,207	-0,198	-0,194	-0,190	-0,187	-0,181	-0,167	-0,162	-0,163	-0,156	-0,161	-0,177	-0,189	-0,192	-0,203	-0,220	-0,220	-0,210	-0,202	-0,193	-0,174	-0,161	-0,148	-0,141	-0,138	-0,134	-0,133	-0,135	-0,144	-0,156	-0,147	-0,110	-0,056	-0,035	-0,063	-0,111	-0,152	-0,175	-0,187	-0,193	-0,186	-0,160	-0,140	-0,140	-0,139	-0,139	-0,137	-0,113	-0,066	-0,013	0,044	0,089	0,121	0,151	0,195	0,259	0,329	0,397	0,460	0,524	0,582	0,639	0,686	0,718	0,732	0,736	0,742	0,760	0,780	0,785	0,747	0,649	0,519	0,380	0,248	0,119	-0,005	-0,116	-0,210	-0,300	-0,395	-0,474	-0,516	-0,519	-0,512	-0,507	-0,494	-0,480	-0,471	-0,451	-0,419	-0,389	-0,378	-0,386	-0,395	-0,395	-0,381	-0,348	-0,308	-0,274	-0,248	-0,233	-0,224	-0,219	-0,210	-0,200	-0,193	-0,190	-0,186	-0,196	-0,205	-0,203	-0,201	-0,204	-0,205	-0,210	-0,214	-0,195	-0,175	-0,170	-0,180	-0,213	-0,235	-0,229	-0,214	-0,197	-0,187	-0,190	-0,191	-0,186	-0,180	-0,161	-0,134	-0,125	-0,148	-0,173	-0,191	-0,206	-0,207	-0,202	-0,193	-0,171	-0,158	-0,152	-0,153	-0,150	-0,139	-0,125	-0,114	-0,114	-0,118	-0,108	-0,100	-0,115	-0,140	-0,159	-0,162	-0,152	-0,139	-0,126	-0,111	-0,098	-0,091	-0,088	-0,085	-0,084	-0,078	-0,067	-0,042	-0,026	-0,033	-0,048	-0,058	-0,055	-0,043	-0,026	-0,014	-0,018	-0,043	-0,063	-0,070	-0,074	-0,066	-0,037	-0,002	0,013	0,017	0,020	0,018	0,018	0,025	0,033	0,032	0,013	-0,017	-0,043	-0,047	-0,028	-0,006	0,018	0,043	0,062	0,066	0,060	0,053	0,051	0,052	0,060	0,063	0,051	0,034	0,030	0,033	0,035	0,030	0,034	0,048	0,052	0,048	0,050	0,060	0,077	0,092	0,090	0,086	0,091	0,098	0,102	0,111	0,122	0,126	0,131	0,125	0,108	0,093	0,084	0,083	0,085	0,099	0,106	0,090	0,063	0,037	0,020	0,008	-0,004	-0,006	0,003	0,013	0,029	0,044	0,044	0,027	0,007	-0,012	-0,030	-0,040	-0,044	-0,042	-0,037	-0,037	-0,050	-0,056	-0,046	-0,020	-0,008	-0,032	-0,071	-0,102	-0,120	-0,134	-0,126	-0,099	-0,082	-0,091	-0,116	-0,126	-0,125	-0,130	-0,139	-0,143	-0,143	-0,138	-0,135	-0,147	-0,168	-0,180	-0,181	-0,186	-0,188	-0,178	-0,162	-0,142	-0,136	-0,143	-0,161	-0,184	-0,202	-0,213	-0,220	-0,220	-0,226	-0,224	-0,210	-0,184	-0,158	-0,147	-0,149	-0,162	-0,165	-0,159	-0,160	-0,159	-0,153	-0,151	-0,158	-0,173	-0,198	-0,225	-0,250	-0,264	-0,271	-0,271	-0,259	-0,240	-0,217	-0,200	-0,182	-0,165	-0,144	-0,129	-0,134	-0,154	-0,174	-0,190	-0,200	-0,211	-0,230	-0,245	-0,254	-0,262	-0,275	-0,288	-0,285	-0,274	-0,260	-0,245	-0,234	-0,233	-0,238	-0,239	-0,234	-0,231	-0,237	-0,240	-0,242	-0,240	-0,236	-0,236	-0,236	-0,226	-0,202	-0,176	-0,154	-0,138	-0,122	-0,107	-0,104	-0,114	-0,127	-0,140	-0,151	-0,145	-0,137	-0,137	-0,145	-0,150	-0,158	-0,169	-0,168	-0,166	-0,159	-0,136	-0,102	-0,079	-0,069	-0,059	-0,038	-0,019	-0,015	-0,019	-0,016	-0,014	-0,029	-0,050	-0,050	-0,042	-0,041	-0,049	-0,051	-0,043	-0,030	-0,030	-0,042	-0,048	-0,052	-0,066	-0,080	-0,101	-0,124	-0,150	-0,172	-0,198	-0,213	-0,208	-0,205	-0,211	-0,215	-0,227	-0,240	-0,256	-0,266	-0,267	-0,266	-0,270	-0,270	-0,261	-0,262	-0,266	-0,272	-0,294	-0,311	-0,313	-0,321	-0,338	-0,362	-0,380	-0,389	-0,397	-0,400	-0,391	-0,373	-0,358	-0,351	-0,357	-0,362	-0,367	-0,372	-0,372	-0,366	-0,359	-0,336	-0,304	-0,289	-0,292	-0,308	-0,330	-0,346	-0,348	-0,331	-0,319	-0,322	-0,326	-0,324	-0,323	-0,320	-0,311	-0,298	-0,277	-0,264	-0,274	-0,283	-0,273	-0,266	-0,280	-0,306	-0,324	-0,339	-0,351	-0,361	-0,364	-0,358	-0,343	-0,327	-0,324	-0,324	-0,318	-0,302	-0,292	-0,290	-0,287	-0,281	-0,278	-0,282	-0,291	-0,302	-0,310	-0,322	-0,333	-0,326	-0,307	-0,300	-0,285	-0,255	-0,204	-0,154	-0,119	-0,093	-0,067	-0,038	-0,010	0,030	0,091	0,148	0,192	0,229	0,275	0,334	0,396	0,448	0,492	0,524	0,548	0,565	0,571	0,576	0,584	0,571	0,520	0,440	0,342	0,241	0,124	-0,010	-0,144	-0,270	-0,372	-0,450	-0,527	-0,592	-0,629	-0,648	-0,658	-0,664	-0,665	-0,659	-0,643	-0,622	-0,591	-0,564	-0,535	-0,500	-0,469	-0,445	-0,426	-0,409	-0,405	-0,403	-0,398	-0,395	-0,393	-0,391	-0,386	-0,378	-0,368	-0,357	-0,350	-0,352	-0,355	-0,346	-0,336	-0,340	-0,354	-0,372	-0,377	-0,366	-0,345	-0,334	-0,340	-0,357	-0,376	-0,385	-0,377	-0,361	-0,344	-0,339	-0,338	-0,334	-0,326	-0,308	-0,289	-0,276	-0,271	-0,270	-0,275	-0,278	-0,281	-0,278	-0,275	-0,284	-0,293	-0,292	-0,287	-0,289	-0,284	-0,265	-0,244	-0,232	-0,226	-0,226	-0,226	-0,229	-0,246	-0,266	-0,259	-0,231	-0,213	-0,214	-0,232	-0,249	-0,254	-0,251	-0,244	-0,236	-0,229	-0,227	-0,228	-0,220	-0,206	-0,192	-0,187	-0,177	-0,167	-0,162	-0,154	-0,155	-0,161	-0,169	-0,180	-0,199	-0,216	-0,223	-0,223	-0,212	-0,187	-0,138	-0,079	-0,038	-0,037	-0,062	-0,081	-0,080	-0,066	-0,061	-0,069	-0,081	-0,090	-0,077	-0,059	-0,054	-0,058	-0,057	-0,039	-0,017	-0,011	-0,017	-0,023	-0,024	-0,016	-0,009	-0,007	-0,012	-0,019	-0,026	-0,028	-0,014	0,001	0,015	0,036	0,042	0,034	0,034	0,056	0,077	0,064	0,042	0,032	0,025	0,013	0,004	-0,010	-0,023	-0,028	-0,024	-0,021	-0,019	-0,008	0,007	0,023	0,032	0,039	0,031	0,011	-0,020	-0,049	-0,068	-0,082	-0,082	-0,077	-0,071	-0,075	-0,088	-0,098	-0,107	-0,110	-0,116	-0,128	-0,148	-0,161	-0,153	-0,132	-0,116	-0,115	-0,120	-0,112	-0,095	-0,093	-0,109	-0,130	-0,148	-0,160	-0,164	-0,161	-0,163	-0,170	-0,187	-0,202	-0,201	-0,196	-0,202	-0,215	-0,228	-0,229	-0,205	-0,169	-0,139	-0,122	-0,123	-0,139	-0,153	-0,166	-0,181	-0,201	-0,217	-0,219	-0,201	-0,177	-0,177	-0,198	-0,210	-0,214	-0,216	-0,212	-0,198	-0,177	-0,160	-0,158	-0,170	-0,182	-0,193	-0,199	-0,192	-0,190	-0,199	-0,211	-0,209	-0,199	-0,200	-0,208	-0,216	-0,226	-0,234	-0,239	-0,240	-0,228	-0,212	-0,209	-0,213	-0,220	-0,220	-0,203	-0,187	-0,193	-0,200	-0,198	-0,206	-0,224	-0,222	-0,217	-0,207	-0,210	-0,223	-0,232	-0,227	-0,220	-0,212	-0,211	-0,217	-0,209	-0,197	-0,197	-0,197	-0,184	-0,172	-0,183	-0,200	-0,195	-0,174	-0,155	-0,150	-0,158	-0,160	-0,147	-0,136	-0,135	-0,139	-0,134	-0,129	-0,125	-0,104	-0,072	-0,063	-0,079	-0,091	-0,088	-0,079	-0,057	-0,046	-0,042	-0,021	0,001	0,006	-0,002	-0,004	-0,001	0,011	0,018	0,015	0,011	0,007	0,009	0,020	0,034	0,032	0,025	0,015	-0,006	-0,033	-0,051	-0,048	-0,021	-0,004	-0,007	-0,032	-0,062	-0,075	-0,085	-0,090	-0,091	-0,091	-0,093	-0,105	-0,116	-0,125	-0,149	-0,196	-0,254	-0,296	-0,306	-0,300	-0,301	-0,312	-0,316	-0,297	-0,266	-0,244	-0,241	-0,238	-0,226	-0,212	-0,206	-0,224	-0,254	-0,279	-0,294	-0,311	-0,320	-0,317	-0,308	-0,300	-0,284	-0,271	-0,264	-0,266	-0,258	-0,243	-0,237	-0,228	-0,225	-0,215	-0,189	-0,178	-0,198	-0,232	-0,257	-0,263	-0,264	-0,269	-0,281	-0,294	-0,308	-0,310	-0,294	-0,272	-0,247	-0,222	-0,200	-0,193	-0,201	-0,208	-0,208	-0,202	-0,192	-0,181	-0,175	-0,177	-0,176	-0,181	-0,196	-0,222	-0,249	-0,269	-0,282	-0,285	-0,275	-0,247	-0,202	-0,170	-0,163	-0,164	-0,172	-0,188	-0,196	-0,188	-0,175	-0,173	-0,179	-0,187	-0,181	-0,167	-0,149	-0,117	-0,066	-0,001	0,054	0,088	0,119	0,159	0,209	0,274	0,334	0,397	0,467	0,536	0,592	0,633	0,651	0,662	0,681	0,691	0,682	0,668	0,660	0,635	0,572	0,501	0,429	0,344	0,226	0,087	-0,042	-0,150	-0,252	-0,347	-0,421	-0,472	-0,516	-0,560	-0,588	-0,594	-0,557	-0,494	-0,444	-0,419	-0,403	-0,384	-0,354	-0,339	-0,335	-0,324	-0,314	-0,313	-0,308	-0,290	-0,278	-0,284	-0,285	-0,260	-0,235	-0,219	-0,207	-0,205	-0,208	-0,213	-0,224	-0,233	-0,230	-0,209	-0,193	-0,184	-0,182	-0,180	-0,173	-0,175	-0,169	-0,152	-0,139	-0,133	-0,136	-0,151	-0,168	-0,175	-0,171	-0,158	-0,139	-0,122	-0,110	-0,111	-0,109	-0,101	-0,096	-0,096	-0,094	-0,074	-0,048	-0,037	-0,054	-0,082	-0,115	-0,134	-0,142	-0,146	-0,129	-0,106	-0,089	-0,085	-0,092	-0,095	-0,084	-0,064	-0,046	-0,031	-0,021	-0,033	-0,059	-0,075	-0,063	-0,027	0,002	0,000	-0,025	-0,049	-0,065	-0,070	-0,061	-0,026	0,020	0,053	0,076	0,094	0,109	0,108	0,099	0,101	0,093	0,068	0,034	0,003	-0,021	-0,028	-0,013	0,010	0,027	0,034	0,039	0,035	0,032	0,033	0,044	0,064	0,076	0,076	0,072	0,088	0,120	0,149	0,171	0,189	0,199	0,193	0,163	0,129	0,121	0,139	0,153	0,143	0,138	0,151	0,175	0,197	0,209	0,209	0,212	0,217	0,227	0,233	0,237	0,234	0,227	0,224	0,229	0,235	0,244	0,244	0,226	0,197	0,169	0,162	0,174	0,200	0,221	0,233	0,228	0,208	0,193	0,191	0,194	0,190	0,187	0,181	0,181	0,188	0,195	0,205	0,209	0,203	0,190	0,178	0,165	0,148	0,137	0,137	0,139	0,138	0,140	0,135	0,123	0,107	0,093	0,085	0,078	0,072	0,065	0,062	0,073	0,077	0,070	0,058	0,044	0,037	0,043	0,054	0,062	0,066	0,072	0,084	0,092	0,085	0,068	0,041	0,019	0,011	0,009	0,014	0,030	0,048	0,053	0,045	0,035	0,033	0,026	0,011	-0,002	0,008	0,030	0,031	0,020	0,018	0,025	0,036	0,047	0,054	0,052	0,035	0,020	0,019	0,022	0,031	0,036	0,023	0,004	-0,003	0,005	0,017	0,014	-0,001	-0,005	0,003	0,003	-0,010	-0,016	0,001	0,028	0,052	0,061	0,054	0,042	0,023	0,011	0,006	0,015	0,030	0,035	0,025	0,011	0,017	0,044	0,060	0,045	0,022	0,006	0,011	0,026	0,022	-0,002	-0,017	-0,004	0,030	0,056	0,064	0,063	0,066	0,075	0,088	0,111	0,145	0,155	0,129	0,095	0,070	0,052	0,040	0,047	0,085	0,128	0,150	0,155	0,153	0,149	0,154	0,162	0,171	0,183	0,194	0,193	0,177	0,152	0,134	0,146	0,176	0,198	0,208	0,215	0,210	0,207	0,215	0,229	0,244	0,252	0,257	0,253	0,243	0,235	0,235	0,229	0,196	0,149	0,115	0,109	0,106	0,100	0,098	0,103	0,112	0,110	0,097	0,087	0,082	0,085	0,089	0,077	0,052	0,027	0,006	-0,022	-0,051	-0,075	-0,095	-0,100	-0,093	-0,088	-0,072	-0,050	-0,036	-0,030	-0,024	-0,023	-0,038	-0,058	-0,059	-0,036	-0,014	-0,007	-0,007	0,002	0,004	-0,012	-0,048	-0,082	-0,096	-0,092	-0,089	-0,089	-0,082	-0,070	-0,055	-0,046	-0,037	-0,033	-0,033	-0,037	-0,039	-0,035	-0,025	-0,023	-0,024	-0,014	-0,004	-0,004	-0,012	-0,018	-0,026	-0,032	-0,026	-0,028	-0,040	-0,041	-0,024	-0,005	0,004	0,007	0,012	0,021	0,016	-0,006	-0,037	-0,060	-0,063	-0,055	-0,060	-0,069	-0,076	-0,073	-0,065	-0,050	-0,034	-0,020	0,005	0,042	0,079	0,090	0,082	0,067	0,058	0,052	0,054	0,066	0,092	0,125	0,154	0,194	0,262	0,366	0,492	0,588	0,654	0,701	0,732	0,747	0,762	0,797	0,849	0,907	0,943	0,963	0,981	0,984	0,961	0,898	0,796	0,677	0,557	0,454	0,349	0,241	0,135	0,042	-0,036	-0,120	-0,206	-0,269	-0,298	-0,308	-0,313	-0,323	-0,333	-0,334	-0,323	-0,313	-0,296	-0,265	-0,230	-0,195	-0,139	-0,060	-0,001	0,011	0,004	-0,007	-0,016	-0,023	-0,031	-0,050	-0,066	-0,073	-0,075	-0,070	-0,053	-0,043	-0,046	-0,049	-0,044	-0,033	-0,022	-0,011	-0,003	-0,005	-0,011	-0,013	-0,006	0,001	0,009	0,023	0,040	0,057	0,058	0,047	0,025	-0,003	-0,029	-0,041	-0,030	0,008	0,054	0,087	0,098	0,090	0,075	0,050	0,022	0,013	0,023	0,043	0,062	0,081	0,081	0,072	0,060	0,052	0,041	0,034	0,033	0,039	0,057	0,069	0,068	0,064	0,077	0,102	0,125	0,139	0,149	0,159	0,155	0,145	0,148	0,153	0,147	0,132	0,112	0,111	0,108	0,103	0,103	0,107	0,111	0,125	0,149	0,166	0,170	0,170	0,163	0,160	0,155	0,158	0,163	0,172	0,172	0,175	0,182	0,193	0,201	0,208	0,217	0,221	0,226	0,242	0,262	0,280	0,285	0,289	0,290	0,292	0,293	0,279	0,263	0,258	0,253	0,252	0,269	0,291	0,303	0,310	0,318	0,321	0,329	0,333	0,342	0,343	0,336	0,324	0,312	0,305	0,304	0,310	0,323	0,331	0,328	0,316	0,317	0,348	0,389	0,408	0,394	0,357	0,330	0,320	0,323	0,332	0,340	0,358	0,367	0,353	0,333	0,319	0,311	0,302	0,292	0,272	0,251	0,240	0,230	0,224	0,224	0,223	0,232	0,255	0,276	0,287	0,301	0,306	0,293	0,266	0,236	0,223	0,207	0,182	0,160	0,153	0,165	0,190	0,208	0,213	0,201	0,185	0,181	0,179	0,185	0,186	0,179	0,175	0,177	0,174	0,160	0,139	0,116	0,101	0,093	0,098	0,123	0,145	0,168	0,183	0,174	0,145	0,130	0,136	0,147	0,143	0,137	0,131	0,132	0,146	0,170	0,173	0,149	0,114	0,081	0,075	0,097	0,113	0,121	0,129	0,131	0,131	0,133	0,132	0,120	0,110	0,113	0,128	0,144	0,147	0,146	0,151	0,150	0,147	0,130	0,113	0,104	0,101	0,103	0,111	0,119	0,121	0,121	0,127	0,140	0,154	0,161	0,158	0,143	0,126	0,126	0,139	0,142	0,118	0,095	0,074	0,053	0,056	0,066	0,075	0,094	0,116	0,132	0,147	0,156	0,165	0,191	0,211	0,206	0,178	0,152	0,146	0,154	0,176	0,191	0,193	0,189	0,183	0,183	0,192	0,204	0,223	0,247	0,257	0,248	0,243	0,242	0,242	0,242	0,246	0,257	0,265	0,270	0,265	0,257	0,263	0,275	0,282	0,288	0,311	0,326	0,316	0,290	0,271	0,271	0,285	0,304	0,310	0,299	0,288	0,277	0,255	0,232	0,209	0,193	0,182	0,165	0,163	0,178	0,180	0,163	0,137	0,120	0,115	0,103	0,095	0,095	0,097	0,086	0,080	0,077	0,056	0,030	0,019	0,010	-0,003	-0,022	-0,033	-0,032	-0,027	-0,025	-0,022	-0,021	-0,025	-0,007	0,016	0,033	0,039	0,041	0,043	0,037	0,025	0,004	-0,020	-0,029	-0,022	0,004	0,025	0,039	0,052	0,062	0,064	0,062	0,072	0,088	0,103	0,099	0,084	0,069	0,055	0,036	0,021	0,009	0,001	-0,007	-0,021	-0,026	-0,016	-0,008	-0,001	0,018	0,037	0,051	0,064	0,071	0,076	0,085	0,095	0,097	0,104	0,110	0,112	0,101	0,085	0,071	0,065	0,056	0,037	0,020	0,022	0,041	0,067	0,102	0,122	0,115	0,097	0,096	0,129	0,180	0,223	0,253	0,274	0,278	0,286	0,321	0,384	0,452	0,519	0,579	0,633	0,696	0,758	0,813	0,868	0,914	0,949	0,963	0,960	0,959	0,967	0,950	0,890	0,799	0,689	0,571	0,454	0,340	0,229	0,138	0,071	0,005	-0,068	-0,132	-0,178	-0,217	-0,254	-0,281	-0,287	-0,280	-0,270	-0,256	-0,233	-0,210	-0,194	-0,173	-0,149	-0,120	-0,096	-0,079	-0,052	-0,027	-0,015	-0,002	0,018	0,041	0,057	0,063	0,057	0,041	0,030	0,022	0,019	0,021	0,033	0,052	0,062	0,061	0,058	0,052	0,040	0,027	0,021	0,024	0,031	0,038	0,040	0,042	0,045	0,042	0,038	0,036	0,034	0,035	0,039	0,041	0,032	0,024	0,017	0,015	0,024	0,049	0,071	0,085	0,094	0,096	0,097	0,101	0,107	0,110	0,102	0,105	0,106	0,113	0,127	0,134	0,118	0,102	0,104	0,125	0,139	0,136	0,122	0,111	0,112	0,123	0,126	0,124	0,129	0,139	0,155	0,168	0,161	0,125	0,096	0,100	0,130	0,153	0,167	0,176	0,176	0,167	0,154	0,150	0,160	0,169	0,177	0,178	0,190	0,215	0,231	0,236	0,246	0,257	0,252	0,244	0,243	0,240	0,219	0,199	0,196	0,220	0,262	0,291	0,307	0,317	0,329	0,332	0,335	0,344	0,350	0,341	0,336	0,340	0,338	0,330	0,317	0,301	0,283	0,280	0,301	0,340	0,367	0,377	0,375	0,377	0,392	0,411	0,425	0,424	0,409	0,382	0,350	0,335	0,331	0,323	0,317	0,316	0,311	0,310	0,312	0,315	0,315	0,317	0,315	0,310	0,317	0,332	0,338	0,325	0,304	0,281	0,262	0,245	0,228	0,212	0,200	0,194	0,191	0,188	0,178	0,165	0,159	0,152	0,145	0,153	0,167	0,170	0,165	0,166	0,172	0,184	0,194	0,197	0,188	0,161	0,123	0,093	0,085	0,087	0,094	0,104	0,110	0,103	0,097	0,087	0,077	0,073	0,087	0,106	0,114	0,119	0,115	0,096	0,073	0,056	0,047	0,056	0,082	0,111	0,129	0,138	0,137	0,131	0,130	0,136	0,138	0,134	0,126	0,111	0,091	0,078	0,073	0,074	0,078	0,080	0,072	0,065	0,062	0,048	0,033	0,034	0,043	0,047	0,056	0,067	0,077	0,074	0,072	0,075	0,078	0,081	0,078	0,071	0,064	0,068	0,074	0,073	0,068	0,057	0,041	0,014	-0,010	-0,020	-0,005	0,024	0,054	0,080	0,103	0,124	0,133	0,124	0,128	0,139	0,131	0,105	0,087	0,082	0,085	0,082	0,071	0,065	0,068	0,084	0,101	0,112	0,126	0,146	0,163	0,165	0,162	0,157	0,146	0,135	0,120	0,110	0,114	0,126	0,144	0,162	0,178	0,184	0,182	0,170	0,170	0,185	0,206	0,224	0,240	0,250	0,255	0,255	0,247	0,241	0,249	0,254	0,243	0,242	0,255	0,267	0,270	0,267	0,248	0,225	0,216	0,205	0,181	0,167	0,158	0,137	0,108	0,083	0,063	0,034	0,002	-0,024	-0,030	-0,022	-0,018	-0,018	-0,015	-0,007	0,010	0,017	-0,003	-0,028	-0,050	-0,062	-0,056	-0,048	-0,045	-0,048	-0,060	-0,085	-0,094	-0,094	-0,098	-0,096	-0,086	-0,068	-0,063	-0,074	-0,075	-0,058	-0,054	-0,057	-0,055	-0,043	-0,023	-0,006	-0,009	-0,030	-0,048	-0,063	-0,076	-0,078	-0,062	-0,042	-0,031	-0,032	-0,037	-0,046	-0,054	-0,056	-0,062	-0,059	-0,046	-0,039	-0,049	-0,068	-0,075	-0,058	-0,029	-0,027	-0,054	-0,091	-0,123	-0,126	-0,106	-0,076	-0,069	-0,074	-0,075	-0,065	-0,057	-0,063	-0,071	-0,072	-0,063	-0,047	-0,036	-0,027	-0,012	-0,010	-0,020	-0,011	-0,006	-0,021	-0,054	-0,081	-0,085	-0,074	-0,059	-0,036	-0,009	0,013	0,037	0,078	0,127	0,165	0,181	0,215	0,286	0,371	0,445	0,502	0,559	0,622	0,665	0,697	0,755	0,822	0,870	0,898	0,901	0,890	0,891	0,884	0,845	0,762	0,634	0,491	0,353	0,218	0,092	-0,029	-0,141	-0,230	-0,301	-0,359	-0,409	-0,449	-0,472	-0,478	-0,461	-0,432	-0,394	-0,344	-0,306	-0,281	-0,257	-0,241	-0,205	-0,139	-0,103	-0,123	-0,161	-0,177	-0,166	-0,146	-0,123	-0,092	-0,079	-0,077	-0,063	-0,045	-0,032	-0,030	-0,039	-0,053	-0,060	-0,071	-0,085	-0,102	-0,113	-0,112	-0,102	-0,079	-0,055	-0,041	-0,032	-0,021	-0,017	-0,016	-0,021	-0,041	-0,048	-0,033	-0,018	0,005	0,027	0,032	0,028	0,027	0,024	0,013	0,001	-0,005	-0,009	-0,010	-0,001	0,013	0,021	0,025	0,025	0,024	0,032	0,048	0,058	0,064	0,057	0,046	0,042	0,035	0,027	0,022	0,022	0,036	0,055	0,080	0,103	0,110	0,102	0,090	0,076	0,062	0,055	0,056	0,060	0,076	0,099	0,112	0,112	0,116	0,126	0,144	0,149	0,139	0,121	0,114	0,120	0,135	0,149	0,163	0,175	0,178	0,182	0,179	0,179	0,189	0,196	0,196	0,190	0,182	0,184	0,203	0,234	0,253	0,263	0,289	0,301	0,263	0,223	0,203	0,206	0,229	0,253	0,267	0,290	0,319	0,331	0,326	0,321	0,313	0,305	0,297	0,281	0,273	0,281	0,298	0,319	0,333	0,333	0,329	0,320	0,308	0,302	0,308	0,322	0,333	0,346	0,358	0,359	0,363	0,350	0,318	0,280	0,258	0,259	0,264	0,268	0,272	0,271	0,270	0,273	0,280	0,286	0,286	0,280	0,266	0,251	0,241	0,234	0,240	0,250	0,247	0,229	0,218	0,214	0,200	0,172	0,142	0,129	0,132	0,147	0,154	0,149	0,147	0,150	0,154	0,154	0,148	0,136	0,145	0,157	0,155	0,141	0,130	0,131	0,127	0,123	0,121	0,112	0,095	0,092	0,105	0,110	0,090	0,087	0,096	0,114	0,126	0,123	0,106	0,091	0,088	0,089	0,094	0,116	0,137	0,142	0,132	0,117	0,112	0,110	0,110	0,114	0,111	0,108	0,116	0,140	0,163	0,176	0,170	0,146	0,087	0,030	-0,007	-0,012	0,005	0,032	0,055	0,067	0,084	0,111	0,125	0,116	0,100	0,090	0,072	0,046	0,037	0,051	0,072	0,084	0,085	0,083	0,082	0,070	0,053	0,040	0,026	0,023	0,045	0,079	0,106	0,124	0,124	0,113	0,107	0,090	0,075	0,076	0,076	0,069	0,064	0,073	0,088	0,098	0,100	0,109	0,119	0,127	0,122	0,112	0,112	0,134	0,149	0,149	0,154	0,176	0,195	0,201	0,213	0,227	0,240	0,238	0,225	0,210	0,205	0,208	0,214	0,218	0,219	0,225	0,234	0,232	0,225	0,244	0,277	0,299	0,307	0,296	0,273	0,249	0,230	0,208	0,199	0,198	0,189	0,168	0,150	0,165	0,193	0,211	0,196	0,167	0,147	0,137	0,117	0,097	0,090	0,086	0,079	0,059	0,032	0,008	-0,006	-0,017	-0,035	-0,043	-0,040	-0,041	-0,046	-0,042	-0,030	-0,027	-0,026	-0,018	-0,013	-0,014	-0,031	-0,049	-0,060	-0,068	-0,